Baseline 100%T,,Baseline 0%T,,sample3,,
Wavelength (nm),%T,Wavelength (nm),%T,Wavelength (nm),Abs,
2800,2293.466797,2800,-0.1575068384,2800,5.161087513,
2798,2224.543213,2798,-0.0158497151,2798,10,
2796,2211.878906,2796,0.1052984148,2796,10,
2794,2222.979004,2794,-0.2137384862,2794,10,
2792,2234.046875,2792,-0.3051663935,2792,6.122432709,
2790,2262.645996,2790,-0.015937455,2790,10,
2788,2260.255615,2788,-0.2447265387,2788,10,
2786,2229.855469,2786,-0.06115130335,2786,4.471091747,
2784,2171.731201,2784,-0.1655556113,2784,4.382793903,
2782,2147.866455,2782,0.02918864414,2782,10,
2780,2141.951172,2780,0.01462120097,2780,10,
2778,2131.801758,2778,-0.09371957928,2778,10,
2776,2134.080811,2776,-0.2353322506,2776,3.930614471,
2774,2160.172119,2774,-0.01601242833,2774,4.233827591,
2772,2191.128418,2772,-0.27637586,2772,4.807990551,
2770,2210.748535,2770,0.04985257983,2770,10,
2768,2211.776855,2768,-0.148832038,2768,4.125526428,
2766,2252.205811,2766,-0.4177423716,2766,3.598380566,
2764,2353.446777,2764,0.0007758954889,2764,10,
2762,2442.930664,2762,0.06872238219,2762,4.384006977,
2760,2536.275146,2760,0.1186752319,2760,10,
2758,2615.388184,2758,-0.1654838622,2758,10,
2756,2623.050781,2756,-0.357696861,2756,4.126419067,
2754,2546.978271,2754,-0.1232974082,2754,10,
2752,2374.921631,2752,-0.0298047699,2752,10,
2750,2271.559326,2750,-0.1222885475,2750,4.531405449,
2748,2259.411865,2748,0.1401270479,2748,10,
2746,2328.26001,2746,-0.1828477234,2746,4.949460506,
2744,2446.196045,2744,-0.06758392602,2744,4.101161003,
2742,2573.041016,2742,-0.02887476049,2742,4.214614868,
2740,2607.798096,2740,-0.0934028849,2740,4.525451183,
2738,2469.257813,2738,-0.1378682554,2738,4.525683403,
2736,2282.265381,2736,0.05334286392,2736,10,
2734,2169.757568,2734,-0.1366108209,2734,10,
2732,2115.99707,2732,-0.0370606035,2732,10,
2730,2135.376953,2730,-0.09152291715,2730,10,
2728,2200.595215,2728,-0.04895613343,2728,10,
2726,2258.414551,2726,-0.2221686989,2726,4.01538372,
2724,2256.93457,2724,-0.1543155462,2724,4.035627365,
2722,2190.384521,2722,-0.08383335173,2722,10,
2720,2158.477539,2720,-0.2089430094,2720,3.977361917,
2718,2183.470215,2718,-0.1424078345,2718,10,
2716,2248.871826,2716,-0.0507931523,2716,10,
2714,2383.021729,2714,-0.1118511781,2714,10,
2712,2532.617432,2712,0.03368207812,2712,10,
2710,2599.178223,2710,-0.1878572106,2710,4.245168686,
2708,2525.754395,2708,-0.1659565419,2708,4.733969688,
2706,2369.562256,2706,-0.0366685316,2706,10,
2704,2275.917725,2704,-0.1679660231,2704,4.568720818,
2702,2244.631836,2702,0.1446702331,2702,10,
2700,2220.130859,2700,-0.005402068142,2700,10,
2698,2217.896484,2698,-0.1551615298,2698,5.037826538,
2696,2223.876709,2696,0.06543798745,2696,10,
2694,2150.25,2694,-0.06591038406,2694,4.849601269,
2692,2020.857422,2692,0.08440024406,2692,10,
2690,1907.822266,2690,-0.06529518962,2690,10,
2688,1866.27002,2688,-0.005137887318,2688,10,
2686,1879.109009,2686,0.006430562586,2686,10,
2684,1873.628174,2684,0.007832761854,2684,4.905187607,
2682,1825.915771,2682,-0.2020322978,2682,10,
2680,1820.149414,2680,-0.2419176698,2680,3.905976057,
2678,1847.674927,2678,-0.001773418975,2678,10,
2676,1879.047363,2676,-0.2304880917,2676,3.942785501,
2674,2033.081055,2674,-0.1318182498,2674,4.091693401,
2672,2323.469238,2672,-0.3421063721,2672,3.993293762,
2670,2713.537354,2670,0.1781891435,2670,10,
2668,3048.759277,2668,-0.2357438505,2668,4.280325413,
2666,3287.80249,2666,-0.2609012723,2666,6.776565075,
2664,3370.956543,2664,-0.06654523313,2664,10,
2662,3386.553223,2662,-0.2270293683,2662,5.034952164,
2660,3302.05957,2660,-0.01541088242,2660,10,
2658,3160.413574,2658,-0.1732489765,2658,4.367562294,
2656,3051.748779,2656,-0.143817544,2656,7.078690529,
2654,2985.578613,2654,-0.05025659874,2654,10,
2652,2868.253662,2652,-0.03844622895,2652,10,
2650,2716.914307,2650,-0.07128831744,2650,10,
2648,2569.461914,2648,-0.03420759365,2648,4.820835114,
2646,2430.353027,2646,-0.1115060076,2646,4.189766407,
2644,2287.50415,2644,-0.03766886517,2644,7.884271622,
2642,2170.66626,2642,-0.07546847314,2642,10,
2640,2086.950684,2640,-0.004037743434,2640,10,
2638,2041.1604,2638,-0.02568624355,2638,10,
2636,2035.672974,2636,-0.05377915129,2636,4.523424149,
2634,2038.898804,2634,-0.003460667795,2634,5.549428463,
2632,2033.733032,2632,-0.03910461813,2632,10,
2630,2020.201904,2630,-0.0837450698,2630,4.430737972,
2628,1989.072021,2628,-0.143412739,2628,4.644681454,
2626,1960.422119,2626,0.004718742799,2626,4.696779728,
2624,1973.232788,2624,-0.01513560861,2624,10,
2622,2031.764404,2622,-0.1466679275,2622,4.297940254,
2620,2129.683838,2620,-0.2337180823,2620,4.093449593,
2618,2196.63501,2618,0.1307673454,2618,10,
2616,2209.899902,2616,-0.08895225823,2616,10,
2614,2167.144043,2614,-0.1122941524,2614,4.106230736,
2612,2146.781738,2612,-0.09657327086,2612,4.575477123,
2610,2156.521973,2610,-0.08156979084,2610,10,
2608,2231.705566,2608,-0.04943506047,2608,4.377122879,
2606,2307.295898,2606,-0.1635308415,2606,4.246482849,
2604,2367.619873,2604,-0.1127320379,2604,10,
2602,2339.953125,2602,-0.1362704039,2602,4.652531147,
2600,2254.257324,2600,0.001530621434,2600,4.435131073,
2598,2251.709473,2598,-0.1305762976,2598,5.126251698,
2596,2354.864258,2596,0.009883180261,2596,10,
2594,2436.606445,2594,-0.07402214408,2594,4.421539783,
2592,2464.440674,2592,-0.1224426106,2592,5.454409599,
2590,2482.431885,2590,0.0410216935,2590,10,
2588,2495.89502,2588,-0.03062273003,2588,10,
2586,2500.52002,2586,-0.1278527379,2586,10,
2584,2543.381104,2584,-0.06631148607,2584,4.499432087,
2582,2560.953613,2582,-0.09278204292,2582,4.198092461,
2580,2538.660156,2580,-0.001390715479,2580,10,
2578,2478.970947,2578,-0.124718979,2578,5.100967407,
2576,2432.114746,2576,-0.09474848956,2576,4.81828928,
2574,2419.923828,2574,-0.008936055005,2574,10,
2572,2466.985107,2572,-0.09537077695,2572,4.402215958,
2570,2530.996826,2570,-0.009237509221,2570,10,
2568,2578.885986,2568,-0.06933448464,2568,5.195506096,
2566,2611.544922,2566,-0.00951869227,2566,10,
2564,2628.226074,2564,-0.07065634429,2564,5.013765335,
2562,2627.468018,2562,-0.005004852079,2562,10,
2560,2571.701172,2560,-0.04674883932,2560,10,
2558,2495.671387,2558,-0.02319515869,2558,4.986579895,
2556,2489.70166,2556,-0.04721941799,2556,4.882856369,
2554,2558.549561,2554,-0.05805198848,2554,5.334205627,
2552,2641.587402,2552,-0.01080369949,2552,10,
2550,2674.087158,2550,-0.03692946956,2550,8.484520912,
2548,2667.708984,2548,-0.06824336946,2548,4.696580887,
2546,2635.133545,2546,-0.04202562943,2546,5.106989384,
2544,2634.122314,2544,-0.05426471308,2544,4.859651089,
2542,2687.043457,2542,-0.06921572983,2542,4.52438879,
2540,2745.869873,2540,-0.05565300211,2540,5.637228012,
2538,2815.547607,2538,0.01037298236,2538,10,
2536,2870.119385,2536,-0.0176521223,2536,10,
2534,2927.826904,2534,0.003363959026,2534,10,
2532,2955.804199,2532,-0.002967532258,2532,10,
2530,2989.384521,2530,-0.006152615882,2530,5.127968311,
2528,3015.910156,2528,-0.0252552554,2528,5.096011162,
2526,3058.869385,2526,0.003758250736,2526,10,
2524,3095.989502,2524,-0.006897452753,2524,10,
2522,3086.617676,2522,-0.01698245108,2522,5.493896484,
2520,3108.484131,2520,-0.03869370371,2520,5.10902071,
2518,3121.755127,2518,-0.03099136241,2518,4.946060658,
2516,3152.909912,2516,-0.02825193852,2516,5.837087631,
2514,3163.645996,2514,0.003415165702,2514,10,
2512,3178.943604,2512,-0.01229738072,2512,10,
2510,3202.982666,2510,0.0005199231091,2510,10,
2508,3237.168213,2508,-0.01238358114,2508,6.186583519,
2506,3254.674072,2506,-0.008274949156,2506,10,
2504,3257.063965,2504,-0.0002430360328,2504,10,
2502,3263.53833,2502,-0.04447266087,2502,4.707735062,
2500,3276.847412,2500,-0.01054259669,2500,10,
2498,3282.689209,2498,-0.01061002724,2498,10,
2496,3303.911133,2496,-0.02969964035,2496,5.239576817,
2494,3308.272461,2494,-0.001322152559,2494,10,
2492,3309.21167,2492,-0.03856543452,2492,10,
2490,3327.359375,2490,-0.03276437148,2490,4.981044292,
2488,3354.255371,2488,-0.02529280819,2488,5.792158127,
2486,3380.666992,2486,-0.02512915432,2486,5.324876308,
2484,3401.851318,2484,-0.02848618291,2484,5.173900604,
2482,3411.063477,2482,-0.01964806579,2482,10,
2480,3410.024902,2480,-0.0008060007822,2480,10,
2478,3415.168701,2478,-0.01950515807,2478,5.705193043,
2476,3424.199219,2476,-0.0144501105,2476,5.837391376,
2474,3439.105225,2474,-0.0111789275,2474,10,
2472,3455.834229,2472,-0.007981275208,2472,10,
2470,3460.393066,2470,-0.03037694842,2470,5.491490841,
2468,3485.538574,2468,-0.02228198946,2468,10,
2466,3501.824463,2466,-0.02681632154,2466,5.076185226,
2464,3516.36084,2464,-0.02511352114,2464,5.40869236,
2462,3519.970215,2462,-0.03249112517,2462,5.068180084,
2460,3527.924805,2460,-0.03817981854,2460,4.92903471,
2458,3536.53833,2458,-0.007117172237,2458,10,
2456,3547.341797,2456,-0.001451425138,2456,10,
2454,3551.151611,2454,-0.01016461384,2454,5.921030998,
2452,3564.044678,2452,-0.03683643788,2452,5.150382996,
2450,3587.406982,2450,-0.0185627602,2450,5.812932491,
2448,3613.97583,2448,-0.02120764181,2448,10,
2446,3644.746826,2446,-0.0130826477,2446,10,
2444,3647.713135,2444,-0.007833071053,2444,10,
2442,3649.532227,2442,0.005002639722,2442,5.751922607,
2440,3648.753418,2440,-0.018231038,2440,5.554122448,
2438,3667.683105,2438,-0.008142756298,2438,6.165261269,
2436,3682.596924,2436,-0.01563811488,2436,5.697349548,
2434,3699.919922,2434,-0.01440145727,2434,10,
2432,3723.282715,2432,-0.02271573991,2432,5.416802406,
2430,3742.823486,2430,-0.00622764416,2430,10,
2428,3750.909912,2428,-0.006365740206,2428,10,
2426,3744.420166,2426,-0.02003538236,2426,5.198838711,
2424,3759.200684,2424,0.01113354694,2424,10,
2422,3761.219482,2422,-0.01220702752,2422,10,
2420,3771.543457,2420,-0.01761157066,2420,10,
2418,3793.147949,2418,-0.003831620794,2418,5.601477623,
2416,3815.307129,2416,0.001172178658,2416,10,
2414,3824.220703,2414,-0.01744716801,2414,5.532724857,
2412,3838.855713,2412,-0.02039788291,2412,5.884325504,
2410,3841.844238,2410,-0.008471764624,2410,9.242787361,
2408,3853.242432,2408,0.0107973516,2408,10,
2406,3869.558594,2406,-0.002005726565,2406,10,
2404,3883.259277,2404,-0.0143743474,2404,6.016813755,
2402,3897.12793,2402,-0.01896382868,2402,6.02573967,
2400,3905.228027,2400,-0.02518786862,2400,5.314646721,
2398,3912.9021,2398,-0.01259948313,2398,6.646399498,
2396,3928.434814,2396,-0.01089530624,2396,5.956384659,
2394,3938.441406,2394,-0.02375156805,2394,5.23307991,
2392,3949.12915,2392,-0.002640541177,2392,6.19654417,
2390,3954.950684,2390,-0.00942852255,2390,5.98340559,
2388,3968.94043,2388,-0.004676740151,2388,10,
2386,3977.743896,2386,-0.01277663652,2386,6.399897575,
2384,3986.393066,2384,-0.004246921744,2384,10,
2382,4003.382813,2382,-0.01741429791,2382,5.418624878,
2380,4010.151611,2380,-0.01885242015,2380,6.029857159,
2378,4019.985107,2378,-0.004059894476,2378,10,
2376,4026.480957,2376,-0.01002428588,2376,10,
2374,4037.533691,2374,-0.01931377873,2374,6.153545856,
2372,4044.051758,2372,-0.00879012607,2372,5.810341358,
2370,4048.806396,2370,-0.002062133048,2370,10,
2368,4055.965088,2368,-0.00362107018,2368,10,
2366,4062.179199,2366,-0.003808397334,2366,6.791415215,
2364,4070.289551,2364,-0.005288516171,2364,5.567731857,
2362,4072.483398,2362,-0.01498886663,2362,5.44411087,
2360,4082.834961,2360,-0.009342830628,2360,5.535390377,
2358,4082.655273,2358,-0.0125047937,2358,6.821169376,
2356,4093.10376,2356,-0.008279963396,2356,6.528011799,
2354,4093.711426,2354,-0.006577038672,2354,6.356983662,
2352,4095.322754,2352,-0.0001884564845,2352,10,
2350,4105.430176,2350,-0.002704579616,2350,10,
2348,4108.773438,2348,-0.002843633993,2348,10,
2346,4106.578125,2346,-0.004111810122,2346,10,
2344,4106.353516,2344,0.001987798605,2344,6.560228825,
2342,4110.354004,2342,-0.007098107133,2342,10,
2340,4109.028809,2340,-0.01104159746,2340,5.61375618,
2338,4112.706543,2338,-0.003329110332,2338,10,
2336,4108.342285,2336,-0.01053034049,2336,5.872896671,
2334,4107.110352,2334,0.00263561355,2334,10,
2332,4105.352051,2332,-0.01109712292,2332,5.794590473,
2330,4099.828125,2330,-0.004488621373,2330,10,
2328,4096.166992,2328,-0.009979557246,2328,5.870069027,
2326,4092.257813,2326,-0.01162617281,2326,6.167358398,
2324,4090.881836,2324,-0.00935873948,2324,6.862970829,
2322,4084.118652,2322,-0.0007817625301,2322,10,
2320,4076.315674,2320,-0.006355749909,2320,5.946573257,
2318,4068.002686,2318,0.0008143056184,2318,10,
2316,4063.990479,2316,-0.007262986153,2316,10,
2314,4049.953369,2314,-0.00588437682,2314,10,
2312,4035.486328,2312,-0.005045563914,2312,10,
2310,4014.32959,2310,-0.01447392162,2310,5.679405212,
2308,4002.019043,2308,0.005509219132,2308,10,
2306,3980.906006,2306,-0.01035550144,2306,5.682727337,
2304,3954.332275,2304,-0.01164409518,2304,5.362467289,
2302,3923.19873,2302,0.0003588362597,2302,10,
2300,3896.422119,2300,-0.01219895668,2300,10,
2298,3866.674316,2298,-0.003180838656,2298,10,
2296,3826.04248,2296,-0.006049046759,2296,5.653621197,
2294,3787.224609,2294,-0.01277133822,2294,5.849767208,
2292,3746.239502,2292,-0.01080972329,2292,6.12510252,
2290,3698.525146,2290,0.0002661488543,2290,10,
2288,3651.792969,2288,-0.0135398414,2288,10,
2286,3607.548584,2286,-0.004655752331,2286,10,
2284,3555.351318,2284,-0.001728586154,2284,5.704983711,
2282,3503.359131,2282,-0.00841785688,2282,10,
2280,3450.052246,2280,0.006364726927,2280,10,
2278,3399.659668,2278,-0.01879713871,2278,5.485954762,
2276,3344.908203,2276,-0.0219517909,2276,6.05793047,
2274,3300.127441,2274,-0.01925729588,2274,5.216984272,
2272,3261.397461,2272,-0.02909234539,2272,4.964862823,
2270,3231.392334,2270,-0.01128057297,2270,10,
2268,3204.429932,2268,-0.01458969526,2268,5.496763229,
2266,3185.958984,2266,0.006220380776,2266,10.32537842,
2264,3179.294678,2264,-0.01105580479,2264,5.413951397,
2262,3194.200439,2262,-0.01983415149,2262,10,
2260,3212.169922,2260,0.004817910958,2260,10,
2258,3242.568848,2258,-0.01277509984,2258,5.154474258,
2256,3282.457031,2256,-0.00759423431,2256,5.324456692,
2254,3326.624756,2254,-0.02641842887,2254,5.144731045,
2252,3367.286621,2252,0.02060373127,2252,10,
2250,3413.664551,2250,-0.006296254229,2250,10,
2248,3431.965332,2248,-0.01446606871,2248,5.291222095,
2246,3460.498779,2246,-0.01912113838,2246,5.025281906,
2244,3478.897949,2244,-0.02205912955,2244,5.183673382,
2242,3507.113281,2242,-0.005552565213,2242,10,
2240,3519.724609,2240,-0.01010889281,2240,5.783605099,
2238,3549.257568,2238,0.005364319775,2238,10,
2236,3564.237305,2236,-0.04490555078,2236,4.933601379,
2234,3579.977051,2234,0.007237602491,2234,10,
2232,3604.55542,2232,-0.007800244261,2232,5.35418272,
2230,3616.531006,2230,-0.002720856108,2230,6.440740585,
2228,3635.39624,2228,0.006009803154,2228,10,
2226,3655.481445,2226,0.004374437965,2226,10,
2224,3670.601318,2224,-0.02060091682,2224,5.243965626,
2222,3690.399658,2222,-0.01806814037,2222,5.443395615,
2220,3709.751953,2220,-0.0132524306,2220,5.380942345,
2218,3718.285645,2218,-0.000449972722,2218,8.751639366,
2216,3731.810059,2216,-0.006422532257,2216,10,
2214,3747.685547,2214,-0.004315891769,2214,5.40911293,
2212,3763.508545,2212,-0.02327481657,2212,5.27709341,
2210,3777.738525,2210,-0.01768453978,2210,5.36571455,
2208,3782.407715,2208,-0.004838314373,2208,5.59589529,
2206,3788.871826,2206,-0.01443191152,2206,5.110919952,
2204,3790.275146,2204,-0.005146586336,2204,5.034059525,
2202,3797.749756,2202,-0.007323793601,2202,5.397135258,
2200,3785.816162,2200,0.005571506452,2200,10,
2198,3774.771973,2198,-0.007529083174,2198,9.180213928,
2196,3748.019043,2196,-0.01638512686,2196,5.242500305,
2194,3719.054688,2194,-0.005751966033,2194,5.123152256,
2192,3667.338623,2192,0.006651721895,2192,5.352005005,
2190,3583.345703,2190,-0.0134993894,2190,4.883464336,
2188,3511.827881,2188,-0.01351093128,2188,4.83177948,
2186,3424.191406,2186,-0.002912816359,2186,4.711584091,
2184,3368.474854,2184,-0.01645297743,2184,4.484747887,
2182,3351.272949,2182,-0.00854053162,2182,4.348062515,
2180,3388.803223,2180,0.003850228386,2180,4.206926823,
2178,3444.141357,2178,-0.0008684316417,2178,4.011033535,
2176,3515.356934,2176,-0.003681971459,2176,3.776262999,
2174,3534.161865,2174,0.005677748937,2174,3.540159702,
2172,3549.282715,2172,-0.01688558049,2172,3.246451855,
2170,3545.706543,2170,-0.008606007323,2170,2.908139706,
2168,3545.574463,2168,-0.01452635229,2168,2.531862497,
2166,3547.143555,2166,0.003680853872,2166,2.112824202,
2164,3549.262939,2164,-0.02303019725,2164,1.736153245,
2162,3551.837891,2162,-0.01206406113,2162,1.445591807,
2160,3558.042969,2160,-0.02058460377,2160,1.2154001,
2158,3558.914551,2158,-0.03028234839,2158,1.031129837,
2156,3563.855713,2156,-0.0241731815,2156,0.8873326778,
2154,3558.060791,2154,0.007210792042,2154,0.764858067,
2152,3564.063965,2152,-0.001280379598,2152,0.6656653881,
2150,3564.417969,2150,-0.01568693854,2150,0.5735034347,
2148,3562.504883,2148,-0.01210844703,2148,0.4695844352,
2146,3567.44873,2146,-0.00261384598,2146,0.3660534322,
2144,3569.766602,2144,-0.0085750008,2144,0.2674283683,
2142,3563.583496,2142,-0.009775855578,2142,0.1967839152,
2140,3573.118164,2140,-0.01683809794,2140,0.1635168344,
2138,3571.614746,2138,0.007740457077,2138,0.1723294556,
2136,3576.719727,2136,-0.007496215403,2136,0.2256953716,
2134,3577.220947,2134,-0.006362421904,2134,0.331240505,
2132,3584.792725,2132,-0.02374373935,2132,0.482306689,
2130,3586.204834,2130,-0.02370364033,2130,0.6700319648,
2128,3586.90332,2128,-0.0110493293,2128,0.8468839526,
2126,3596.020996,2126,-0.01220316906,2126,0.9874255061,
2124,3595.341064,2124,-0.0201842729,2124,1.145204067,
2122,3592.703613,2122,0.003637434216,2122,1.343815804,
2120,3598.06665,2120,-0.01900199242,2120,1.595708013,
2118,3595.454102,2118,0.005729803815,2118,1.894914865,
2116,3598.380615,2116,-0.01225394383,2116,2.262617111,
2114,3598.46582,2114,0.00110488059,2114,2.670281172,
2112,3606.016113,2112,-0.02003606409,2112,3.048325539,
2110,3606.833252,2110,-0.01117599476,2110,3.378146887,
2108,3610.976807,2108,-0.006786428858,2108,3.665040493,
2106,3607.220459,2106,-0.01120244805,2106,3.885133266,
2104,3612.688721,2104,-0.01339762378,2104,4.068335056,
2102,3617.225342,2102,-0.03297145665,2102,4.19602108,
2100,3616.138428,2100,-0.004746197257,2100,4.420102596,
2098,3621.587646,2098,0.01462104078,2098,4.76277113,
2096,3625.837646,2096,-0.00160239602,2096,4.856394291,
2094,3622.883301,2094,-0.01021025702,2094,4.886391163,
2092,3630.591309,2092,-0.01129272114,2092,4.842333317,
2090,3625.874756,2090,-0.00175103615,2090,5.255156517,
2088,3630.000732,2088,0.005596529692,2088,5.633228302,
2086,3634.157471,2086,-0.01133340877,2086,5.176300526,
2084,3637.382813,2084,-0.02182926983,2084,5.336121559,
2082,3637.774658,2082,-0.02075930499,2082,5.199552059,
2080,3637.222656,2080,-0.00824525021,2080,5.181946754,
2078,3636.129883,2078,-0.01345349848,2078,5.183618069,
2076,3643.280762,2076,-0.01345760841,2076,5.434030056,
2074,3644.281006,2074,-0.02271948569,2074,5.227285862,
2072,3644.416016,2072,-0.0134671554,2072,5.208976746,
2070,3652.639404,2070,-0.01448775828,2070,5.512827873,
2068,3652.013428,2068,-0.02770232968,2068,4.942887783,
2066,3654.349609,2066,-0.008418804966,2066,5.353751183,
2064,3661.893555,2064,-0.00239436375,2064,5.259480953,
2062,3655.972168,2062,-0.008464173414,2062,5.959852219,
2060,3662.448486,2060,-0.01749311574,2060,5.609423161,
2058,3657.465332,2058,-0.01548665762,2058,5.610787868,
2056,3663.816162,2056,-0.02044404671,2056,5.187225819,
2054,3669.118164,2054,-0.02437566966,2054,5.025689602,
2052,3666.226074,2052,-0.001697390107,2052,5.726068497,
2050,3670.179443,2050,-0.01253231615,2050,5.670331478,
2048,3670.616943,2048,0.005030147266,2048,10,
2046,3673.244141,2046,-0.01740883105,2046,5.622982979,
2044,3677.809082,2044,-0.03095833026,2044,5.011297703,
2042,3677.640137,2042,0.001903614611,2042,5.978814125,
2040,3677.416504,2040,-0.004888093099,2040,5.541287899,
2038,3680.997803,2038,-0.008748355322,2038,5.354743481,
2036,3685.55835,2036,-0.003052418819,2036,10,
2034,3681.798828,2034,-0.008795241825,2034,5.309868336,
2032,3684.163574,2032,-0.01259973459,2032,5.44443512,
2030,3691.747559,2030,-0.005069881678,2030,6.292369843,
2028,3690.62085,2028,-0.008859378286,2028,5.480801105,
2026,3690.29834,2026,-0.005141018424,2026,5.420070648,
2024,3696.354736,2024,-0.005172818899,2024,5.319784164,
2022,3693.957031,2022,-0.002424074104,2022,10,
2020,3694.144043,2020,-0.005240622908,2020,6.300695896,
2018,3693.862793,2018,0.007631933317,2018,10,
2016,3694.264648,2016,-0.00990074873,2016,6.127304077,
2014,3703.654785,2014,-0.01540847402,2014,5.652916908,
2012,3701.699463,2012,-0.006285354029,2012,5.705013752,
2010,3703.966553,2010,0.001871152199,2010,10,
2008,3703.149902,2008,-0.01177768968,2008,5.912189484,
2006,3704.299805,2006,-0.01900679991,2006,5.181812763,
2004,3705.282227,2004,-0.01449660026,2004,5.410615444,
2002,3715.11377,2002,-0.004636229482,2002,10,
2000,3713.374023,2000,-0.01002877858,2000,5.442948818,
1998,3715.517334,1998,-0.008267680183,1998,5.666438103,
1996,3735.773926,1996,-0.00763237197,1996,10,
1994,3731.787842,1994,-0.01021985337,1994,5.686507702,
1992,3737.523193,1992,-0.01024508942,1992,5.388325214,
1990,3741.014404,1990,-0.0001293185778,1990,10,
1988,3744.958984,1988,0.003154822392,1988,6.649075508,
1986,3748.263916,1986,-0.01281640586,1986,5.220294952,
1984,3743.841064,1984,-0.01781473681,1984,5.148366928,
1982,3747.67334,1982,-0.008697644807,1982,5.70195055,
1980,3745.823242,1980,-0.01119645592,1980,5.226768494,
1978,3750.23877,1978,0.004346629605,1978,10,
1976,3750.120605,1976,-0.004709062632,1976,5.458866596,
1974,3747.268311,1974,-0.01205685083,1974,5.409360409,
1972,3753.340088,1972,-0.01933967136,1972,5.49103117,
1970,3756.912598,1970,-0.01529638842,1970,5.271701336,
1968,3758.403809,1968,-0.0008821337251,1968,5.972879887,
1966,3757.28418,1966,-0.002526031574,1966,10,
1964,3752.59668,1964,0.002195027424,1964,6.373383999,
1962,3759.471924,1962,-0.006571285427,1962,5.77354002,
1960,3758.280518,1960,-0.01370633207,1960,5.315942287,
1958,3756.51123,1958,-0.0003302229452,1958,10,
1956,3764.569824,1956,-0.005867643282,1956,5.505101204,
1954,3763.272949,1954,-0.0004149836896,1954,10,
1952,3767.632324,1952,-0.009034834802,1952,5.684149742,
1950,3760.406494,1950,0.002629750641,1950,10,
1948,3755.520264,1948,-0.01372526307,1948,5.479642391,
1946,3745.175537,1946,-0.002052698052,1946,10,
1944,3730.877197,1944,-0.001266682521,1944,6.684592724,
1942,3720.437256,1942,-0.01528894529,1942,5.247540474,
1940,3722.004395,1940,0.0112485867,1940,10,
1938,3743.580566,1938,-0.005906201899,1938,6.078537941,
1936,3752.682129,1936,-0.004322930705,1936,5.726168633,
1934,3746.587646,1934,-0.01765658148,1934,5.377635479,
1932,3720.262939,1932,-0.007424793672,1932,5.560174942,
1930,3716.133545,1930,-0.01056191698,1930,5.557056427,
1928,3730.849854,1928,-0.01452645194,1928,5.494268417,
1926,3678.591064,1926,-0.00491640158,1926,5.548705101,
1924,3673.716064,1924,0.003984080162,1924,10,
1922,3702.888428,1922,-0.009672185406,1922,5.298459053,
1920,3706.915283,1920,-0.003120055888,1920,5.704519749,
1918,3684.394531,1918,-0.0006456648698,1918,10,
1916,3700.456543,1916,-0.009608111344,1916,5.508581638,
1914,3747.472656,1914,0.00859341491,1914,10,
1912,3692.431641,1912,-0.0137041742,1912,5.286827087,
1910,3670.018799,1910,-0.006202157121,1910,6.168745041,
1908,3675.782715,1908,-0.0111908922,1908,5.689064026,
1906,3658.392822,1906,-0.01369305421,1906,6.162691593,
1904,3641.898438,1904,0.004713242874,1904,10,
1902,3745.468506,1902,-0.009527415037,1902,5.223520279,
1900,3864.293945,1900,-0.01532007754,1900,5.311107159,
1898,3844.163574,1898,-0.02342127264,1898,5.228663445,
1896,3822.280518,1896,-0.01129066478,1896,5.265379906,
1894,3809.328857,1894,-0.0003221284715,1894,10,
1892,3782.663086,1892,-0.009833334014,1892,5.688644409,
1890,3785.654053,1890,-0.003017150098,1890,5.917291641,
1888,3801.118408,1888,-0.01523037534,1888,5.361715794,
1886,3807.648438,1886,-0.01893110573,1886,5.313256741,
1884,3816.647461,1884,-0.003466466907,1884,5.761649132,
1882,3761.853027,1882,-0.004957478028,1882,5.93215847,
1880,3709.144531,1880,0.003983236384,1880,10,
1878,3606.375488,1878,-0.005531872157,1878,5.681537628,
1876,3498.64624,1876,-0.00613501342,1876,6.058051109,
1874,3496.394043,1874,-0.01456679124,1874,5.236906528,
1872,3617.55835,1872,-0.005102128256,1872,5.458927631,
1870,3814.943604,1870,-0.002673693001,1870,5.570413589,
1868,3958.034424,1868,-0.009780183434,1868,5.921839237,
1866,3920.017334,1866,-0.0082180053,1866,6.70177269,
1864,3842.595703,1864,-0.006677855738,1864,5.611897469,
1862,3751.527344,1862,0.001095418702,1862,5.452329159,
1860,3726.681641,1860,0.0009933161782,1860,5.60416317,
1858,3726.824951,1858,-0.00453836564,1858,5.68789959,
1856,3804.022217,1856,-0.007689825725,1856,5.340320587,
1854,3800.368164,1854,-0.006292873062,1854,5.202916622,
1852,3679.727539,1852,-0.00272398605,1852,5.420953751,
1850,3743.534424,1850,-0.01452083047,1850,5.231347084,
1848,3793.898682,1848,0.009707912803,1848,10,
1846,3741.808594,1846,-0.01453637052,1846,5.665215015,
1844,3754.12207,1844,-0.004204190336,1844,6.409626484,
1842,3719.983643,1842,-0.007880005054,1842,5.498001575,
1840,3669.671631,1840,-0.01452941634,1840,5.742495537,
1838,3790.958008,1838,0.003150032368,1838,6.415682316,
1836,3885.137451,1836,-0.005020081531,1836,6.732723713,
1834,3856.463135,1834,-0.0109011298,1834,5.251757145,
1832,3850.262451,1832,-0.00667711813,1832,10,
1830,3831.68335,1830,-0.008887376636,1830,6.135884762,
1828,3873.941406,1828,-0.01449288055,1828,5.427057743,
1826,3857.98877,1826,-0.01245432254,1826,5.499363899,
1824,3808.909668,1824,-0.0004616992956,1824,10,
1822,3832.774658,1822,-0.005299592391,1822,5.725702763,
1820,3855.341064,1820,-0.008047424257,1820,5.601568699,
1818,3887.958252,1818,-0.005010844208,1818,10,
1816,3901.644043,1816,0.003478851169,1816,10,
1814,3868.920166,1814,-0.005958077032,1814,5.724209309,
1812,3892.405273,1812,0.004703974351,1812,10,
1810,3887.192627,1810,-0.007999064401,1810,5.563970566,
1808,3891.301758,1808,0.003521086648,1808,5.924062252,
1806,3879.578125,1806,-0.003620088566,1806,6.355546474,
1804,3872.890869,1804,-0.001520765596,1804,6.361152172,
1802,3886.692383,1802,-0.0006018306012,1802,10,
1800,3899.779541,1800,0.005754685961,1800,10,
1798,3900.436768,1798,-0.006931371056,1798,6.081029892,
1796,3894.213867,1796,-0.00862594042,1796,5.431849003,
1794,3892.003906,1794,-0.006052419078,1794,5.525524616,
1792,3895.50708,1792,-0.01084469538,1792,10,
1790,3887.681152,1790,-0.001559496974,1790,6.031598091,
1788,3887.028076,1788,-0.004240498878,1788,5.925521851,
1786,3893.833252,1786,-0.001275082235,1786,5.770076275,
1784,3886.486084,1784,0.0006406604662,1784,5.682745457,
1782,3893.360596,1782,-0.007493922953,1782,5.987627506,
1780,3895.446777,1780,-0.01301660389,1780,10,
1778,3896.315674,1778,-0.004123530351,1778,5.692527771,
1776,3894.900879,1776,0.0002403515682,1776,10,
1774,3892.406006,1774,0.001618059468,1774,10,
1772,3894.432373,1772,-0.001388402656,1772,10,
1770,3897.524902,1770,-0.002910663374,1770,6.431257725,
1768,3892.981689,1768,-0.003457564861,1768,6.063302994,
1766,3897.089355,1766,-0.005428898148,1766,5.73537159,
1764,3898.88623,1764,0.003559262725,1764,6.438651562,
1762,3903.229248,1762,0.003461706685,1762,10,
1760,3897.250488,1760,-0.01075363252,1760,6.015021801,
1758,3903.131592,1758,-0.006556772627,1758,6.319850445,
1756,3903.198242,1756,0.004114966374,1756,10,
1754,3902.775879,1754,-0.0001555606868,1754,10,
1752,3904.873291,1752,-0.009449159727,1752,5.973750114,
1750,3909.995361,1750,-0.0003057315189,1750,5.700603008,
1748,3902.966309,1748,0.001902578166,1748,5.701617241,
1746,3906.057373,1746,-0.003171626013,1746,10,
1744,3906.717773,1744,0.00489246659,1744,10,
1742,3911.959473,1742,0.008394806646,1742,10,
1740,3905.317383,1740,-0.002453748602,1740,10,
1738,3905.436035,1738,-0.0002901128028,1738,10,
1736,3905.416992,1736,0.004501803778,1736,6.342930794,
1734,3904.741211,1734,-0.003080827184,1734,6.248499393,
1732,3916.936523,1732,0.004303723574,1732,8.874840736,
1730,3907.373535,1730,-0.001452828408,1730,5.572548389,
1728,3912.803711,1728,0.0002077682002,1728,10,
1726,3908.998535,1726,0.00271998113,1726,10,
1724,3913.557861,1724,0.003914651461,1724,6.260542393,
1722,3908.812744,1722,0.001258580945,1722,10,
1720,3920.416992,1720,-0.0009416950052,1720,6.961929798,
1718,3919.813477,1718,-0.00270600128,1718,5.925958157,
1716,3918.497559,1716,-0.001081179245,1716,6.066767216,
1714,3920.972412,1714,-0.002402879996,1714,6.972937584,
1712,3915.252197,1712,-0.004548658151,1712,5.79752636,
1710,3917.138184,1710,-0.001699186163,1710,5.976140022,
1708,3917.860352,1708,0.0002916064986,1708,5.977655888,
1706,3920.410156,1706,0.004316042643,1706,10,
1704,3920.197754,1704,-0.001076390385,1704,6.5065341,
1702,3919.940186,1702,-0.002361312974,1702,5.553866863,
1700,3919.689209,1700,-0.0004033827863,1700,5.841285706,
1698,3920.184326,1698,0.001933016232,1698,9.256944656,
1696,3922.019287,1696,0.003850743873,1696,10,
1694,3923.290527,1694,0.003359484952,1694,10,
1692,3923.58252,1692,-0.001082061557,1692,5.95505619,
1690,3927.320801,1690,-0.001940443879,1690,6.095925331,
1688,3916.64917,1688,-0.004356539808,1688,5.523108006,
1686,3923.603027,1686,0.0002631724346,1686,10,
1684,3917.359863,1684,-0.002525742166,1684,10,
1682,3929.234375,1682,-0.00143006735,1682,5.967052937,
1680,3925.543945,1680,-0.001884055324,1680,5.93095541,
1678,3930.380615,1678,0.002247408964,1678,5.899089813,
1676,3924.003906,1676,-0.002774683526,1676,6.315660477,
1674,3926.087646,1674,0.003960679751,1674,10,
1672,3922.779053,1672,0.001986589748,1672,10,
1670,3919.654785,1670,0.001526407665,1670,10,
1668,3929.637939,1668,-0.00115932012,1668,7.029687405,
1666,3923.765137,1666,-0.004189503845,1666,10,
1664,3928.936768,1664,0.003480441635,1664,10,
1662,3925.923096,1662,0.006306312513,1662,10,
1660,3927.289307,1660,0.003289333079,1660,6.735224724,
1658,3926.996338,1658,0.002464477206,1658,6.559751511,
1656,3926.743408,1656,0.0002148154163,1656,7.046553135,
1654,3929.795166,1654,-0.006668049376,1654,5.76166153,
1652,3926.621338,1652,0.003613467095,1652,10,
1650,3930.729248,1650,0.001749809831,1650,10,
1648,3929.595947,1648,-0.0008051165496,1648,6.006134033,
1646,3929.016846,1646,-0.002982348669,1646,5.794397354,
1644,3930.457031,1644,-0.003390457947,1644,5.654140472,
1642,3924.547119,1642,-0.003104578005,1642,5.638529778,
1640,3932.2854,1640,0.003390792292,1640,10,
1638,3925.499756,1638,-0.0001351631072,1638,6.581288815,
1636,3928.827637,1636,-0.002256328007,1636,10,
1634,3923.458984,1634,0.0007378212758,1634,10,
1632,3931.518066,1632,-0.001369206002,1632,10,
1630,3931.736816,1630,0.002931846073,1630,5.954053402,
1628,3930.66626,1628,0.00318119023,1628,10,
1626,3935.974121,1626,9.404651792E-5,1626,5.927007198,
1624,3927.985352,1624,0.0003485079505,1624,6.229944706,
1622,3927.355225,1622,0.003238853533,1622,10,
1620,3929.307129,1620,0.003801922081,1620,10,
1618,3933.917725,1618,0.0001227145112,1618,10,
1616,3930.596191,1616,0.001669084886,1616,5.937386513,
1614,3934.226318,1614,-0.000350029557,1614,6.182233334,
1612,3930.505859,1612,0.0008678503218,1612,6.789749622,
1610,3931.248779,1610,0.00238710246,1610,7.098263264,
1608,3930.171875,1608,0.0007103718235,1608,6.616568565,
1606,3933.904297,1606,0.003483463544,1606,10,
1604,3932.353271,1604,0.004023566842,1604,10,
1602,3933.572266,1602,-0.00202251575,1602,5.798048496,
1600,3931.958008,1600,-0.003022629535,1600,6.022091389,
1598,3931.263672,1598,0.00281713903,1598,10,
1596,3923.482178,1596,0.0005663075135,1596,5.958472729,
1594,3931.294678,1594,0.005715310574,1594,10,
1592,3928.83252,1592,0.0004188185267,1592,10,
1590,3934.564697,1590,0.001863052254,1590,10,
1588,3927.912109,1588,0.001178331207,1588,10,
1586,3925.841797,1586,0.004108998924,1586,10,
1584,3929.729004,1584,-0.001974514918,1584,5.914157391,
1582,3928.079102,1582,0.0009454182582,1582,5.642838001,
1580,3926.981445,1580,0.001164296875,1580,10,
1578,3919.901611,1578,0.00108984299,1578,10,
1576,3925.145752,1576,0.001303782454,1576,6.525666237,
1574,3926.614746,1574,0.001521405065,1574,6.428542614,
1572,3923.754883,1572,-0.004383691587,1572,5.953787804,
1570,3920.671143,1570,-8.622498717E-5,1570,5.985713959,
1568,3922.853516,1568,0.0009993027197,1568,6.436032772,
1566,3921.560547,1566,0.001783481799,1566,6.291083813,
1564,3920.678711,1564,0.001701417728,1564,6.292580128,
1562,3922.071533,1562,-0.002923977794,1562,5.993703842,
1560,3920.915283,1560,0.0009801639244,1560,6.365077019,
1558,3917.85083,1558,0.001465568435,1558,6.143986225,
1556,3919.18457,1556,-8.865518794E-6,1556,5.765888691,
1554,3922.199219,1554,-0.004823573399,1554,5.917720318,
1552,3917.493408,1552,0.001236696495,1552,10,
1550,3917.376221,1550,0.0008825093391,1550,5.704842567,
1548,3915.828613,1548,-1.423421054E-5,1548,5.691412449,
1546,3914.768311,1546,0.002922993852,1546,6.553779602,
1544,3914.883789,1544,-0.0009725465789,1544,5.680916309,
1542,3915.677979,1542,-0.001577504328,1542,6.01451683,
1540,3912.569336,1540,0.00267719035,1540,6.317790031,
1538,3908.556396,1538,-0.0003602672368,1538,5.748514175,
1536,3914.556152,1536,0.0009029811481,1536,5.990042686,
1534,3910.11084,1534,-0.0007619857788,1534,5.752932072,
1532,3909.091309,1532,0.002080897335,1532,6.56736517,
1530,3912.667969,1530,0.003062222386,1530,6.269804955,
1528,3907.693359,1528,0.000617641781,1528,6.059664726,
1526,3909.355957,1526,0.005505103618,1526,6.030293465,
1524,3902.354004,1524,0.004892274272,1524,10,
1522,3902.269043,1522,0.002730987966,1522,6.576152325,
1520,3903.133301,1520,7.984645345E-5,1520,5.925993443,
1518,3905.31958,1518,-0.0002379212674,1518,6.183822632,
1516,3901.626221,1516,-0.001328593586,1516,6.28222847,
1514,3902.590088,1514,0.001409620629,1514,6.58809948,
1512,3903.65332,1512,-0.002455475973,1512,6.235610485,
1510,3897.288818,1510,0.001773974509,1510,10,
1508,3901.630859,1508,0.00245177187,1508,10,
1506,3896.478271,1506,0.003124662442,1506,10,
1504,3898.150146,1504,0.00280234823,1504,5.70456934,
1502,3899.547852,1502,-0.0007380521274,1502,5.994238853,
1500,3896.476074,1500,0.001422742498,1500,6.601112366,
1498,3891.192627,1498,-0.0006085362984,1498,5.598471165,
1496,3897.071533,1496,0.002030031756,1496,6.124398708,
1494,3889.834961,1494,0.001960101072,1494,6.300584793,
1492,3891.923096,1492,-0.004898153711,1492,5.532908916,
1490,3887.641113,1490,0.0003944763157,1490,5.864370823,
1488,3887.407227,1488,0.002996883355,1488,10,
1486,3889.457764,1486,0.0003006991465,1486,5.762170792,
1484,3889.522217,1484,0.000252387108,1484,5.910101891,
1482,3877.940674,1482,0.0006937386934,1482,6.006867409,
1480,3890.071045,1480,0.0023262389,1480,6.26027441,
1478,3896.041504,1478,-0.0003381283022,1478,6.038919449,
1476,3889.482178,1476,0.001764087356,1476,5.91459322,
1474,3877.086182,1474,0.003137118649,1474,6.31269455,
1472,3873.187988,1472,0.006157631986,1472,10,
1470,3892.895508,1470,-0.002611927921,1470,5.700642109,
1468,3887.723633,1468,0.004139202181,1468,7.235283852,
1466,3883.70752,1466,0.001496837591,1466,6.143479824,
1464,3883.92041,1464,0.003988009412,1464,6.381316662,
1462,3874.430176,1462,0.003902371507,1462,6.448447704,
1460,3878.348877,1460,0.004288777243,1460,6.451158524,
1458,3871.741943,1458,0.006516019348,1458,10,
1456,3869.313477,1456,0.005990677979,1456,6.951999664,
1454,3863.85791,1454,0.001818957971,1454,5.974486351,
1452,3862.653076,1452,0.004739487544,1452,5.97603178,
1450,3885.000244,1450,0.005370866973,1450,6.235936165,
1448,3863.702393,1448,0.004198883194,1448,6.536494255,
1446,3862.191406,1446,0.006207593251,1446,10,
1444,3873.310547,1444,0.001882040524,1444,5.803050995,
1442,3872.418701,1442,0.002769773826,1442,6.156844139,
1440,3867.872559,1440,0.002296095714,1440,5.803107738,
1438,3864.373291,1438,0.007242209744,1438,10,
1436,3868.412354,1436,0.006989455316,1436,6.392856598,
1434,3857.265869,1434,0.004705973435,1434,5.955934525,
1432,3869.749756,1432,0.003337598639,1432,6.394300461,
1430,3869.316406,1430,0.003311239183,1430,5.958910942,
1428,3864.141113,1428,0.00509439921,1428,10,
1426,3854.863037,1426,0.001048878534,1426,5.717540264,
1424,3859.191406,1424,0.004649476148,1424,5.838984013,
1422,3848.638184,1422,0.006464208942,1422,7.256541252,
1420,3845.881592,1420,0.003580489662,1420,5.818528652,
1418,3870.536133,1418,0.004987969995,1418,6.392239094,
1416,3841.8125,1416,0.002347681904,1416,6.276984692,
1414,3862.313477,1414,0.00403512083,1414,7.263436794,
1412,3847.744629,1412,0.004140677396,1412,5.996861935,
1410,3822.210205,1410,0.005437945481,1410,10,
1408,3839.823242,1408,0.002108927816,1408,6.140748978,
1406,3877.901123,1406,0.0008336389437,1406,5.989387989,
1404,3874.291504,1404,0.004280015826,1404,6.749267578,
1402,3817.6875,1402,0.003480261192,1402,10,
1400,3877.358154,1400,0.001932130195,1400,6.43528986,
1398,3843.199219,1398,0.001307550119,1398,6.249830723,
1396,3828.533936,1396,0.003363182535,1396,10,
1394,3898.901367,1394,0.0002850171877,1394,5.697374821,
1392,3906.2854,1392,0.003610483371,1392,6.122928619,
1390,3841.196533,1390,0.003269013483,1390,6.150104046,
1388,3812.712402,1388,0.004438207485,1388,10,
1386,3784.811768,1386,0.0005496409722,1386,5.794578552,
1384,3773.035156,1384,-0.0006053639227,1384,5.848289013,
1382,3880.375,1382,0.004379061982,1382,6.229328156,
1380,3975.115234,1380,0.003126316471,1380,6.112195969,
1378,3922.702393,1378,0.003171614604,1378,6.409599304,
1376,3857.639648,1376,0.004789234139,1376,10,
1374,3798.062988,1374,0.002557298867,1374,6.322299957,
1372,3790.277832,1372,0.0003511863179,1372,5.796862125,
1370,3807.429932,1370,0.005553768948,1370,7.187857151,
1368,3826.331787,1368,0.007556404918,1368,10,
1366,3832.206787,1366,0.002502974356,1366,10,
1364,3805.427246,1364,0.003837040626,1364,6.866193771,
1362,3865.52002,1362,0.003248986555,1362,6.163567066,
1360,3928.224609,1360,0.004995782394,1360,6.17358017,
1358,3888.370605,1358,0.004037182778,1358,6.886321068,
1356,3869.551758,1356,0.001981296577,1356,7.193018913,
1354,3893.0271,1354,0.004500996787,1354,7.208955288,
1352,3889.391602,1352,0.004076088779,1352,6.418715477,
1350,3846.896484,1350,-0.003690422047,1350,5.620154381,
1348,3838.098145,1348,0.002423103666,1348,5.932461739,
1346,3830.525635,1346,0.003593623172,1346,6.320265293,
1344,3815.867188,1344,0.001798147568,1344,6.026580334,
1342,3805.835449,1342,0.007590247784,1342,6.338709354,
1340,3807.001221,1340,0.002419331344,1340,5.770127773,
1338,3801.338135,1338,0.003860389115,1338,5.910556793,
1336,3799.456055,1336,0.006559568923,1336,6.082316875,
1334,3797.806885,1334,0.003026198829,1334,5.771077633,
1332,3798.248779,1332,0.004344188608,1332,6.035086155,
1330,3792.873291,1330,0.006302748807,1330,5.924443722,
1328,3797.676514,1328,0.003972182516,1328,5.906855583,
1326,3792.691406,1326,0.006799019407,1326,6.369436741,
1324,3789.422119,1324,0.0006420820137,1324,5.870856762,
1322,3784.929199,1322,0.004929760005,1322,6.092768192,
1320,3785.712402,1320,0.002281725872,1320,5.688030243,
1318,3785.112305,1318,0.009073708206,1318,10,
1316,3776.643311,1316,0.006249721628,1316,6.424732685,
1314,3774.4729,1314,0.001772920601,1314,5.786545753,
1312,3775.183838,1312,0.003487676382,1312,6.059111595,
1310,3771.657471,1310,0.005227187183,1310,5.982320309,
1308,3786.460205,1308,0.003015399212,1308,5.898474693,
1306,3789.8125,1306,0.003090535756,1306,5.936765671,
1304,3793.127441,1304,0.005681419279,1304,6.975489616,
1302,3788.391602,1302,0.003203704488,1302,5.824391842,
1300,3792.316406,1300,0.004079804756,1300,6.412239552,
1298,3785.503662,1298,0.004082830623,1298,5.807208538,
1296,3788.092529,1296,0.004916142207,1296,6.781512737,
1294,3787.204834,1294,0.001730393735,1294,5.736424446,
1292,3788.28418,1292,0.005707765464,1292,6.179004669,
1290,3785.202881,1290,0.003365588142,1290,6.001689911,
1288,3786.757568,1288,0.004594501574,1288,6.960414886,
1286,3787.780273,1286,0.003940284718,1286,5.780463219,
1284,3784.928223,1284,0.008106127381,1284,10,
1282,3786.101807,1282,0.008711473085,1282,6.004252434,
1280,3786.467285,1280,0.005972986575,1280,6.565350533,
1278,3787.655273,1278,0.003656560555,1278,5.796909809,
1276,3787.60376,1276,0.003852545982,1276,5.7825284,
1274,3784.300537,1274,0.00404783152,1274,6.055443764,
1272,3786.688232,1272,0.009668798186,1272,10,
1270,3784.137451,1270,0.000902941043,1270,5.715790749,
1268,3787.20752,1268,0.007985305972,1268,10,
1266,3788.632324,1266,0.006730616093,1266,7.292397976,
1264,3786.424561,1264,0.007141151,1264,10,
1262,3789.523438,1262,0.005263471976,1262,6.147026539,
1260,3786.14502,1260,0.005884199869,1260,6.181089878,
1258,3788.062744,1258,0.008385159075,1258,10,
1256,3789.071777,1256,0.006301108748,1256,6.260992527,
1254,3790.973389,1254,0.004846868105,1254,6.085280895,
1252,3791.771729,1252,0.001725952607,1252,6.08549881,
1250,3791.245605,1250,0.005486579612,1250,7.278502941,
1248,3790.406494,1248,0.005284914747,1248,6.306430817,
1246,3785.427734,1246,0.007383845747,1246,10,
1244,3785.38208,1244,0.004048079252,1244,5.59570694,
1242,3787.131836,1242,0.007407564204,1242,10,
1240,3795.098389,1240,0.005121074617,1240,6.004117489,
1238,3795.280518,1238,0.0007343121106,1238,5.860481262,
1236,3793.140137,1236,0.004107153974,1236,6.18035078,
1234,3794.81958,1234,0.006010112353,1234,10,
1232,3790.398682,1232,0.004770275205,1232,6.178675652,
1230,3794.961182,1230,0.006054924801,1230,10,
1228,3790.246582,1228,0.006290900521,1228,6.178153038,
1226,3798.204834,1226,0.004210742656,1226,6.081086636,
1224,3794.62207,1224,0.004443739541,1224,6.411486149,
1222,3797.322021,1222,0.008483186364,1222,10,
1220,3800.777832,1220,0.00450354768,1220,5.874476433,
1218,3795.639893,1218,0.00771619752,1218,10,
1216,3800.25708,1216,0.005208076444,1216,10,
1214,3806.200439,1214,0.003109176643,1214,5.891579151,
1212,3796.386719,1212,0.003781881649,1212,6.047382832,
1210,3800.051514,1210,0.001461151056,1210,5.928041458,
1208,3801.985596,1208,0.005566335283,1208,7.26757431,
1206,3798.220459,1206,0.004749852233,1206,6.472014427,
1204,3805.924561,1204,0.005440241657,1204,10,
1202,3806.960693,1202,0.004193203524,1202,6.101125717,
1200,3802.478516,1200,0.005102032796,1200,6.946358204,
1198,3804.19165,1198,0.006674359087,1198,10,
1196,3879.3479,1196,0.001082370873,1196,5.651487827,
1194,3877.164063,1194,0.006662547588,1194,6.48832798,
1192,3877.518799,1192,0.005408919416,1192,6.43007946,
1190,3874.902344,1190,0.005956884939,1190,6.856113434,
1188,3879.979248,1188,0.00307484949,1188,5.855098248,
1186,3875.923096,1186,0.004713491537,1186,6.076280594,
1184,3878.731934,1184,0.002909344388,1184,6.15569973,
1182,3877.715332,1182,0.003828159533,1182,6.155889988,
1180,3877.119385,1180,0.006373280659,1180,10,
1178,3879.523438,1178,0.004577270243,1178,6.030528545,
1176,3874.248779,1176,0.004229123704,1176,6.858457088,
1174,3877.367432,1174,0.002069248119,1174,5.717628479,
1172,3880.110107,1172,0.004806653596,1172,6.633865356,
1170,3874.563477,1170,0.003732733196,1170,5.837498665,
1168,3880.695801,1168,0.003572392976,1168,6.28835392,
1166,3876.785645,1166,0.004328590818,1166,6.027398586,
1164,3880.619873,1164,0.005640395451,1164,6.633551121,
1162,3876.841064,1162,0.006589416414,1162,10,
1160,3879.169189,1160,0.004438454751,1160,5.964256763,
1158,3879.827393,1158,0.002827562625,1158,6.178299904,
1156,3882.729736,1156,0.004349005409,1156,6.323611259,
1154,3874.197266,1154,0.005520766135,1154,6.623360634,
1152,3880.447266,1152,0.005774924066,1152,5.979059219,
1150,3885.405029,1150,0.004535846412,1150,6.279829502,
1148,3878.111328,1148,0.003661312861,1148,6.114789963,
1146,3882.019531,1146,0.008596168831,1146,10,
1144,3888.514404,1144,0.00359211769,1144,6.141366959,
1142,3886.146973,1142,0.004032152705,1142,6.169259071,
1140,3885.110107,1140,0.004282852635,1140,6.234680653,
1138,3870.475098,1138,0.004542257171,1138,6.312119007,
1136,3865.796387,1136,0.005380796269,1136,6.163020134,
1134,3897.597412,1134,0.006984830368,1134,10,
1132,3887.017334,1132,0.007050106768,1132,6.709518909,
1130,3867.95874,1130,0.006548449863,1130,10,
1128,3873.746582,1128,0.001596867689,1128,5.855606556,
1126,3880.663574,1126,0.002628690097,1126,6.831741333,
1124,3882.897461,1124,0.003854235169,1124,6.400269032,
1122,3885.963135,1122,0.004304592032,1122,6.458365917,
1120,3895.318115,1120,0.003952010069,1120,6.154963017,
1118,3881.488525,1118,0.003195328405,1118,5.882231712,
1116,3890.955078,1116,0.00459862221,1116,6.39712429,
1114,3883.686523,1114,0.004816802684,1114,6.151245594,
1112,3882.866699,1112,0.005832363386,1112,6.602377415,
1110,3880.75293,1110,0.006266376469,1110,7.01199913,
1108,3883.004883,1108,0.004118987359,1108,6.599136829,
1106,3877.101074,1106,0.003360291477,1106,6.148248196,
1104,3879.965332,1104,0.004983256105,1104,6.062723637,
1102,3873.836426,1102,0.0028402803,1102,6.337960243,
1100,3881.453369,1100,0.002690233523,1100,6.059643745,
1098,3881.905029,1098,0.007756728213,1098,10,
1096,3881.851563,1096,0.00483169267,1096,5.888894558,
1094,3877.738525,1094,0.003299693344,1094,5.837086678,
1092,3876.02417,1092,0.006216230337,1092,6.50794363,
1090,3873.379883,1090,0.007741793524,1090,5.957817554,
1088,3881.371582,1088,0.003553173505,1088,5.956063747,
1086,3878.728027,1086,0.004257182591,1086,6.322004318,
1084,3882.980469,1084,0.0008465971332,1084,5.826746464,
1082,3879.439453,1082,0.009046439081,1082,10,
1080,3881.256592,1080,0.002683013678,1080,5.737335205,
1078,3874.455566,1078,0.005308486521,1078,6.31279707,
1076,3877.341064,1076,0.006908130832,1076,10,
1074,3879.47998,1074,0.005757793784,1074,10,
1072,3881.641113,1072,0.003309362335,1072,6.00384903,
1070,3877.471191,1070,0.004717956763,1070,6.177539825,
1068,3881.574219,1068,0.01026076637,1068,10,
1066,3882.054199,1066,0.00824501738,1066,10,
1064,3879.581055,1064,0.004445231985,1064,5.946602345,
1062,3879.999512,1062,0.003690317972,1062,6.014220715,
1060,3883.541992,1060,0.002260177396,1060,5.899090767,
1058,3882.340332,1058,0.002605120186,1058,6.124119282,
1056,3877.336182,1056,0.007486511488,1056,10,
1054,3883.17334,1054,0.00582903903,1054,6.153261662,
1052,3881.210693,1052,0.00760372635,1052,10,
1050,3881.912598,1050,0.00663381163,1050,10,
1048,3875.151123,1048,0.003301825142,1048,10,
1046,3880.970459,1046,0.004164124839,1046,10,
1044,3883.568604,1044,0.001229766058,1044,5.781947613,
1042,3879.918701,1042,0.002327570925,1042,6.063197136,
1040,3881.895508,1040,0.002000143752,1040,6.126914024,
1038,3884.490479,1038,0.004849920981,1038,6.357755661,
1036,3887.383545,1036,0.006274093874,1036,10,
1034,3879.755127,1034,0.005982667208,1034,6.902667046,
1032,3879.762939,1032,-0.003630737308,1032,5.554572582,
1030,3883.17334,1030,0.004618431907,1030,5.803962708,
1028,3884.548584,1028,0.006881869398,1028,10,
1026,3884.08667,1026,0.001926642843,1026,6.876867771,
1024,3887.006348,1024,0.003424759023,1024,6.21613884,
1022,3884.297119,1022,0.004437538795,1022,10,
1020,3873.436279,1020,-0.003676883411,1020,5.614112854,
1018,3883.584229,1018,0.003272481263,1018,5.635717869,
1016,3876.855469,1016,0.00405096123,1016,5.847007275,
1014,3881.238525,1014,0.008218926378,1014,6.444886684,
1012,3870.821289,1012,0.002858328167,1012,5.793272972,
1010,3874.601807,1010,0.001674269093,1010,5.900362492,
1008,3874.502197,1008,0.003954439424,1008,6.045401573,
1006,3861.251953,1006,0.004224728327,1006,5.837285042,
1004,3861.813721,1004,0.004216130823,1004,5.879954338,
1002,3859.989258,1002,0.007567133289,1002,6.808326721,
1000,3853.888428,1000,0.00978920795,1000,5.79491663,
998,3852.192383,998,-0.0002080510749,998,5.596492767,
996,3844.436523,996,-0.0009262148524,996,5.466842175,
994,3838.80957,994,0.006486238446,994,5.609684944,
992,3836.38623,992,0.002206318546,992,5.785391808,
990,3836.325928,990,0.0001406842493,990,5.695257187,
988,3829.143066,988,0.004857832566,988,5.668244839,
986,3825.904785,986,0.0003058782895,986,5.718432426,
984,3821.665527,984,0.001624102122,984,5.710980892,
982,3818.330811,982,0.004061107058,982,5.62790966,
980,3813.489502,980,-0.001864319318,980,5.570959568,
978,3811.234375,978,0.008768507279,978,10,
976,3815.325928,976,-0.002568088472,976,5.370689392,
974,3815.429199,974,0.008401116356,974,5.354010105,
972,3811.422852,972,-0.0005909492029,972,5.376556396,
970,3805.331055,970,-0.004318254068,970,5.273433685,
968,3795.440186,968,0.008022396825,968,5.467340946,
966,3784.870605,966,0.005147858523,966,5.264147282,
964,3768.810303,964,0.008067852817,964,5.461492538,
962,3763.947021,962,0.005953119602,962,5.244586468,
960,3753.154053,960,0.008578827605,960,5.633010864,
958,3753.60498,958,0.00819617603,958,5.694049358,
956,3731.148438,956,0.002312510042,956,5.479983807,
954,3726.05542,954,-0.001498412108,954,5.787069321,
952,3713.167969,952,0.002683952916,952,10,
950,3702.524902,950,0.001159172854,950,5.834955215,
948,3694.894531,948,0.003592629684,948,6.391050816,
946,3681.566895,946,0.001484713284,946,5.898302078,
944,3667.806641,944,-0.003409020137,944,5.797380447,
942,3656.996826,942,-0.005838256329,942,5.320761681,
940,3638.152344,940,0.003948313184,940,10,
938,3622.702393,938,0.003313570516,938,6.199756622,
936,3598.373535,936,-0.001521326369,936,5.743188381,
934,3591.646484,934,-0.001146904891,934,5.817280769,
932,3568.700439,932,-0.003259406425,932,6.058003902,
930,3550.499023,930,0.005443978589,930,6.267870903,
928,3516.631348,928,0.002737975447,928,5.423886299,
926,3495.854492,926,-0.002876980696,926,6.232237816,
924,3467.15918,924,0.002458048519,924,5.993063927,
922,3449.850098,922,0.003775676945,922,10,
920,3409.773926,920,-0.007660177071,920,5.614106655,
918,3385.504883,918,-0.003493560245,918,5.860021114,
916,3357.786133,916,0.001768301823,916,5.716378212,
914,3322.684082,914,0.01579775475,914,10,
912,3289.830078,912,-0.001308712177,912,10,
910,3255.791016,910,-0.02610491589,910,5.024947166,
908,3219.773193,908,-0.0002128855413,908,10,
906,3192.80957,906,-0.005481163505,906,10,
904,3147.028076,904,0.003060595132,904,5.260728359,
902,3111.264648,902,0.009109626524,902,10,
900,3070.518311,900,-0.006445166189,900,6.447672367,
898,3027.134766,898,0.001995907631,898,10,
896,2986.058838,896,0.003942071926,896,10,
894,2940.984863,894,-0.007782693952,894,5.592081547,
892,2894.911865,892,-0.004834812135,892,5.743087292,
890,2840.855713,890,0.01207801886,890,10,
888,2790.260498,888,-0.003885776736,888,5.143935204,
886,2727.944336,886,0.001120300964,886,5.784645081,
884,2669.206543,884,0.005001961254,884,10,
882,2610.631836,882,-0.01866620407,882,5.202283859,
880,2549.106934,880,-0.02055492438,880,5.472576141,
878,4989.415527,878,0.04487176239,878,5.101741791,
876,4995.942383,876,-0.06261399388,876,4.959944725,
874,5007.669434,874,0.008187158033,874,10,
872,4987.960449,872,-0.001049904386,872,4.886401176,
870,4929.807129,870,0.007812667638,870,10,
868,4887.593262,868,-0.01427877881,868,5.360091209,
866,4839.958496,866,-0.01543653198,866,5.374916553,
864,4859.111816,864,0.0188906081,864,6.122741699,
862,4828.990234,862,0.004529560916,862,10,
860,4792.106445,860,-0.0269975923,860,5.118717194,
858,4766.59375,858,0.01691950858,858,10,
856,4676.574219,856,0.006653936114,856,10,
854,4636.68457,854,0.000500988448,854,6.565540314,
852,4608.999512,852,0.001421865076,852,6.576022148,
850,4581.990723,850,0.007152894046,850,10,
848,4520.933594,848,0.008161536418,848,7.311953545,
846,4472.636719,846,0.0008777068579,846,5.803281784,
844,4434.02832,844,-0.0008301942144,844,5.627152443,
842,4390.643555,842,-0.001766281668,842,5.311301708,
840,4354.679688,840,0.0007971255109,840,5.515512943,
838,4316.630371,838,0.003591364948,838,5.70002079,
836,4303.421875,836,-0.0008977709804,836,5.524368286,
834,4279.5,834,-0.001019868185,834,5.508417606,
832,4248.287109,832,0.007136960514,832,5.510873795,
830,4241.09375,830,0.004687881563,830,5.121794701,
828,4223.603027,828,0.001786364359,828,5.172598362,
826,4211.959473,826,0.000622437743,826,5.314762592,
824,4204.898926,824,0.003715538653,824,5.183999062,
822,4215.512207,822,0.003204156412,822,5.244945526,
820,4198.686035,820,0.001106432872,820,5.404863834,
818,4200.005859,818,0.0004376547586,818,5.535174847,
816,4193.010254,816,0.005661499221,816,6.739322186,
814,4194.668457,814,0.004351033829,814,5.745024204,
812,4202.472168,812,0.001350109931,812,5.597771645,
810,4192.658691,810,0.00322858151,810,5.745135784,
808,4206.410156,808,0.003319998039,808,5.784470081,
806,4202.962891,806,0.001774914213,806,5.923458099,
804,4206.486328,804,0.002066953573,804,5.966127872,
802,4208.418457,802,0.003092566738,802,5.95109129,
800,4213.013672,800,0.003346937243,800,10,
798,4239.456055,798,0.0005235214485,798,6.158883572,
796,4243.695313,796,0.0008832423482,796,6.388620853,
794,4264.916016,794,0.002669060603,794,6.907156467,
792,4254.198242,792,0.001048438484,792,6.094493389,
790,4261.000977,790,-0.001331644715,790,6.174384117,
788,4270.852539,788,0.002273852704,788,6.608269691,
786,4274.708496,786,-0.0003420550784,786,6.520936489,
784,4268.604492,784,0.002483981661,784,10,
782,4280.644043,782,0.002018690342,782,6.238371849,
780,4292.831055,780,0.003082205774,780,10,
778,4295.066895,778,0.002734077862,778,7.506456852,
776,4296.922852,776,0.001900412259,776,10,
774,4299.154785,774,0.002835326828,774,10,
772,4316.428711,772,0.000794444175,772,7.196112633,
770,4318.119629,770,0.00203834381,770,10,
768,4320.193359,768,0.0004673808289,768,10,
766,4310.17627,766,0.003110412508,766,10,
764,4315.492188,764,0.002551522106,764,10,
762,4334.311523,762,8.224591147E-5,762,6.419626713,
760,4338.766113,760,0.001890716492,760,10,
758,4334.085449,758,0.001028780825,758,6.351789474,
756,4342.919434,756,0.003219957929,756,10,
754,4344.53125,754,0.002671449678,754,10,
752,4352.148926,752,0.003715532599,752,10,
750,4358.831055,750,0.002244475298,750,10,
748,4362.851563,748,0.000479848095,748,7.178768158,
746,4371.183105,746,-0.000663016981,746,7.430895805,
744,4379.441406,744,0.0009318809025,744,6.897900105,
742,4384.050293,742,0.0007685484015,742,6.915825367,
740,4392.092285,740,-0.0001279511343,740,6.754422188,
738,4399.788574,738,0.0008379120845,738,10,
736,4392.833008,736,0.001190026756,736,10,
734,4401.470703,734,0.0004192560446,734,7.05273819,
732,4405.241211,732,0.0007644803845,732,7.192116261,
730,4413.969238,730,0.0006164861261,730,6.641021729,
728,4416.859863,728,0.0008474388742,728,10,
726,4428.816406,726,0.0007001198246,726,7.453496456,
724,4430.405273,724,0.001172975637,724,7.068079948,
722,4439.935547,722,0.001933074207,722,10,
720,4438.226563,720,0.001387631753,720,10,
718,4456.132813,718,0.001021302422,718,7.043540478,
716,4460.444336,716,0.0005142841255,716,6.64893198,
714,4464.310547,714,0.0003824667947,714,6.919654369,
712,4468.604492,712,0.0008903673734,712,7.060842037,
710,4480.545898,710,0.0006435043178,710,8.232141495,
708,4486.605469,708,0.00114629406,708,6.945381641,
706,4490.991211,706,0.0006648797425,706,10,
704,4502.418457,704,0.0003210128052,704,6.776949883,
702,4502.849121,702,0.0005853147013,702,6.845608234,
700,4507.752441,700,0.001006078906,700,6.926101208,
698,4525.700684,698,0.0005364857498,698,6.714756489,
696,4526.713379,696,0.001077122521,696,10,
694,4532.553711,694,0.001117500826,694,10,
692,4538.086914,692,0.001143286237,692,8.261264801,
690,4542.625488,690,0.000839906279,690,10,
688,4547.28418,688,0.0007881842903,688,8.24375248,
686,4552.815918,686,0.0007239988772,686,10,
684,4551.851074,684,0.0004279112909,684,6.857527256,
682,4554.465332,682,0.001114042592,682,10,
680,4552.603027,680,0.0003104757634,680,6.644001007,
678,4548.417969,678,0.0008713644347,678,10,
676,4541.71582,676,0.001060271286,676,10,
674,4540.723633,674,0.001243250677,674,10,
672,4531.789551,672,0.0006519173621,672,7.469429016,
670,4521.520996,670,0.001027403399,670,10,
668,4502.342773,668,0.0006567758974,668,7.041713715,
666,4490.418945,666,0.0008671502583,666,7.480985641,
664,4479.43457,664,0.001038277638,664,7.33210659,
662,4466.719238,662,0.0005948985927,662,8.164110184,
660,4449.223145,660,0.0005921178381,660,6.818625927,
658,4445.243164,658,0.0006941642496,658,6.815304279,
656,4438.818848,656,0.001176899183,656,10,
654,4431.555176,654,0.0003041196032,654,6.88829565,
652,4437.665039,652,0.000638642523,652,10,
650,4436.950684,650,0.001186187612,650,10,
648,4446.525391,648,0.0007165938732,648,7.17292738,
646,4459.419922,646,0.001210355433,646,10,
644,4477.416504,644,0.0006095648278,644,7.422365665,
642,4491.530762,642,0.001213905867,642,10,
640,4504.645996,640,0.0004257892142,640,6.979521275,
638,4533.27832,638,0.0004602231493,638,7.14573288,
636,4552.543457,636,0.0006470210501,636,10,
634,4568.114258,634,0.0009766063886,634,10,
632,4579.512207,632,0.0005805257824,632,7.192196369,
630,4587.877441,630,0.0008227166254,630,10,
628,4588.825195,628,0.0001909184939,628,6.663457394,
626,4576.970703,626,0.001170417177,626,10,
624,4566.057129,624,0.00109712733,624,10,
622,4544.871582,622,0.0006168081891,622,10,
620,4517.047852,620,0.0008317464381,620,7.35093689,
618,4496.866699,618,0.000493442174,618,7.149893761,
616,4483.446777,616,0.0007425569929,616,7.758050919,
614,4473.12207,614,0.001274393406,614,7.162358284,
612,4474.590332,612,0.0008569475613,612,7.431070328,
610,4478.966797,610,0.0005715357256,610,8.201740265,
608,4480.621094,608,0.0008620421868,608,7.162965298,
606,4496.047363,606,0.001148804557,606,8.273034096,
604,4502.441895,604,0.001150618657,604,7.169631004,
602,4515.413086,602,0.0006084575434,602,7.168560982,
600,4528.859375,600,0.00149018399,600,10,
598,4541.938965,598,0.001404328621,598,8.414705276,
596,4552.194824,596,0.001276288182,596,10,
594,4558.930664,594,0.001768098213,594,10,
592,4565.319824,592,0.001035733847,592,7.292720318,
590,4575.111816,590,0.000796612585,590,6.730976105,
588,4577.004883,588,0.001273073838,588,6.891327858,
586,4580.144531,586,0.001680590445,586,10,
584,4576.189941,584,0.0009311388712,584,7.465008259,
582,4595.605957,582,0.00143300253,582,7.014928818,
580,4599.32959,580,0.001297124196,580,6.919713497,
578,4599.42627,578,0.001525460393,578,7.033790588,
576,4600.290527,576,0.001484593377,576,7.192507744,
574,4600.749512,574,0.0008841191884,574,10,
572,4603.757813,572,0.001195382909,572,6.839692116,
570,4606.877441,570,0.001430497156,570,8.500440598,
568,4578.594727,568,0.001379380585,568,10,
566,4579.104004,566,0.001502364059,566,8.430261612,
564,4580.822266,564,0.001245231135,564,7.198794365,
562,4589.114258,562,0.0007191480836,562,6.816580296,
560,4585.404785,560,0.001683908864,560,10,
558,4586.755371,558,0.001416860148,558,8.506930351,
556,4585.470215,556,0.00168966502,556,7.210796833,
554,4586.487305,554,0.002228449099,554,10,
552,4589.65625,552,0.002362448722,552,10,
550,4586.383789,550,0.00128125085,550,7.038236618,
548,4589.129883,548,0.001278131735,548,10,
546,4606.01416,546,0.001952693681,546,8.56496048,
544,4630.718262,544,0.00157270825,544,6.689944744,
542,4614.141602,542,0.001871277345,542,10,
540,4610.796875,540,0.001365267206,540,7.054418087,
538,4611.489746,538,0.001384018688,538,8.507281303,
536,4608.658691,536,0.001910743187,536,7.523197174,
534,4619.106445,534,0.001407493837,534,8.479694366,
532,4612.90332,532,0.001289401203,532,10,
530,4614.486816,530,0.002312310971,530,10,
528,4610.746582,528,0.001296232454,528,10,
526,4612.119629,526,0.001301586744,526,6.653107643,
524,4618.02002,524,0.001174133387,524,6.946959496,
522,4616.657227,522,0.00155674899,522,6.856040478,
520,4616.479492,520,0.001302467659,520,7.518632412,
518,4617.688965,518,0.001429420663,518,7.0697999,
516,4618.664551,516,0.001172498334,516,6.77622366,
514,4618.384277,514,0.001039924799,514,6.945931911,
512,4622.137695,512,0.001417485066,512,10,
510,4623.790527,510,0.002437657909,510,10,
508,4617.212402,508,0.001794693293,508,10,
506,4628.141602,506,0.001277533709,506,6.514077663,
504,4627.61084,504,0.002171908272,504,10,
502,4623.018555,502,0.001782889361,502,10,
500,4631.398926,500,0.001905772602,500,10,
498,4627.821777,498,0.001900834264,498,8.637581825,
496,4632.65332,496,0.001249232912,496,6.70258522,
494,4635.383301,494,0.001634154585,494,10,
492,4638.653809,492,0.001888932777,492,8.598567009,
490,4630.603027,490,0.001100852038,490,6.840497017,
488,4645.547852,488,0.002015003469,488,10,
486,4647.757813,486,0.001228398876,486,7.232475281,
484,4641.325195,484,0.00174990634,484,10,
482,4645.909668,482,0.001358265639,482,7.506797791,
480,4647.689453,480,0.001883516205,480,8.69965744,
478,4655.236328,478,0.002278162166,478,10,
476,4647.493164,476,0.002672759583,476,10,
474,4650.629395,474,0.001112509402,474,6.768560886,
472,4655.000488,472,0.001770338509,472,10,
470,4657.375,470,0.002038687235,470,8.796916962,
468,4665.599609,468,0.001788154594,468,7.075576782,
466,4664.399902,466,0.001153632882,466,8.571660995,
464,4657.669922,464,0.002439406002,464,10,
462,4656.820801,462,0.001804716652,462,10,
460,4659.854004,460,0.002569631673,460,10,
458,4663.742676,458,0.002309643663,458,10,
456,4659.922363,456,0.002043417189,456,6.712416649,
454,4656.114746,454,0.001896875212,454,6.649816036,
452,4656.527832,452,0.002131857444,452,7.526491642,
450,4658.947266,450,0.001826831372,450,6.93043232,
448,4641.458984,448,0.001778009231,448,6.569867134,
446,4654.46582,446,0.002431956353,446,10,
444,4646.28125,444,0.001944057643,444,8.801818848,
442,4644.60498,442,0.00172686181,442,8.873333931,
440,4647.825684,440,0.002211809391,440,6.490081787,
438,4648.771973,438,0.002133560134,438,8.762262344,
436,4652.479004,436,0.003017869778,436,10,
434,4658.972656,434,0.002766192658,434,7.229858875,
432,4670.368652,432,0.002568442374,432,10,
430,4673.355469,430,0.001350370934,430,6.677937508,
428,4681.19873,428,0.001835910953,428,6.840006351,
426,4699.194336,426,0.002159513533,426,6.442364693,
424,4705.10498,424,0.001802787301,424,6.928408146,
422,4707.347656,422,0.003285908606,422,10,
420,4705.239258,420,0.002609985415,420,10,
418,4717.919922,418,0.00328240497,418,10,
416,4726.602539,416,0.002471759683,416,6.930024624,
414,4721.225098,414,0.001257896423,414,6.608412266,
412,4734.769043,412,0.002888028976,412,6.536189079,
410,4735.800781,410,0.002131036948,410,10,
408,4738.048828,408,0.001237539575,408,6.306262016,
406,4728.866211,406,0.002850962337,406,6.475887775,
404,4727.539063,404,0.003162243636,404,7.52754879,
402,4732.41748,402,0.004004770424,402,6.340626717,
400,4730.624023,400,0.00274210074,400,6.418880463,
398,4730.945801,398,0.003186346032,398,10,
396,4718.730469,396,0.002187842503,396,9.053477287,
394,4730.122559,394,0.003581288969,394,10,
392,4727.141113,392,0.0027232063,392,6.744637966,
390,4736.805176,390,0.002475355752,390,9.229434013,
388,4726.443359,388,0.004885406233,388,10,
386,4731.071289,386,0.004851866513,386,10,
384,4728.256836,384,0.0006604812224,384,5.909889698,
382,4726.646973,382,0.001676769345,382,10,
380,4732.856445,380,0.006056067999,380,10,
378,4734.85498,378,0.006327827461,378,10,
376,4725.791016,376,-0.002775227651,376,6.150858879,
374,4721.284668,374,0.00142327277,374,10,
372,4739.293457,372,0.009948588908,372,10,
370,4738.756836,370,0.006387492642,370,10,
368,4720.9375,368,-0.0007480687345,368,6.167374134,
366,4743.095215,366,-0.0003788000322,366,6.07961607,
364,4724.128418,364,0.01066663582,364,10,
362,4731.857422,362,0.00856114924,362,10,
360,4730.267578,360,-0.005607889965,360,10,
358,4743.249023,358,0.009066412225,358,6.417760372,
356,4734.853516,356,0.02605610341,356,10,
354,4735.09668,354,-0.03798157722,354,5.311404228,
352,4712.3125,352,0.03882349655,352,10,
350,4726.354492,350,-0.002774151508,350,10,
348,3510.813477,348,-1.510189941E-5,348,6.040710926,
346,3518.280029,346,0.001619467512,346,10,
344,3512.657227,344,0.007830325514,344,10,
342,3511.733154,342,-0.007741346955,342,5.558115005,
340,3497.991211,340,0.006565010641,340,10,
338,3506.703857,338,0.004238483496,338,5.702565193,
336,3533.109375,336,-0.003553312039,336,5.671790123,
334,3528.675781,334,-0.001578867319,334,6.765759468,
332,3517.158936,332,0.003063112032,332,5.91074276,
330,3475.485352,330,0.003073222702,330,10,
328,3488.462158,328,0.003456656821,328,5.732724667,
326,3524.34082,326,0.003206574125,326,5.76321888,
324,3511.676758,324,-0.002949780785,324,5.80050993,
322,3521.27417,322,-0.0007982334937,322,6.932879448,
320,3512.313477,320,-0.001219025115,320,6.131260872,
318,3525.248779,318,-0.002913851757,318,6.010570526,
316,3525.408203,316,-0.0006908664363,316,5.856256962,
314,3527.400146,314,0.002226905897,314,10,
312,3537.940918,312,-0.0002073622745,312,5.85833168,
310,3557.854736,310,0.000286403374,310,6.016004562,
308,3566.981934,308,-0.003047415987,308,10,
306,3555.765137,306,-0.002650137758,306,6.208692551,
304,3558.364502,304,0.0008929364267,304,5.863726139,
302,3549.267578,302,0.001150353346,302,5.907420635,
300,3559.269043,300,0.002823852003,300,10,
298,3538.209473,298,0.000185263576,298,6.463202953,
296,3530.940674,296,0.001535750693,296,6.139240265,
294,3531.706299,294,0.002491864609,294,6.419005394,
292,3516.876953,292,-0.001047980622,292,5.792952061,
290,3505.62207,290,1.500557119E-5,290,6.373542309,
288,3510.83374,288,-0.0002987340849,288,5.842166424,
286,3514.074219,286,0.001852075569,286,6.605895042,
284,3505.768311,284,0.002016287996,284,10,
282,3508.694092,282,0.002458680654,282,6.842079639,
280,3512.632324,280,0.0003408747725,280,7.145625114,
278,3520.349121,278,0.0001506963017,278,10,
276,3521.312988,276,-0.00018893581,276,6.079733372,
274,3514.567871,274,0.002440275392,274,10,
272,3528.969238,272,0.002618826227,272,6.616522312,
270,3521.75415,270,-0.0001040521602,270,6.662283897,
268,3511.783936,268,0.00039498345,268,10,
266,3501.042969,266,0.002272034064,266,6.384782791,
264,3500.589355,264,0.001924684271,264,6.591636658,
262,3494.349365,262,0.0002176121779,262,8.9929142,
260,3502.7771,260,0.001041716896,260,6.760023594,
258,3504.191895,258,0.0006169652916,258,6.478534222,
256,3508.357178,256,0.001730816206,256,10,
254,3501.616211,254,0.002677111654,254,10,
252,3492.584717,252,0.0009602167411,252,10,
250,3488.321289,250,0.001540670521,250,10,

Baseline 100%T,
Baseline 100%T
Collection Time: 7/30/02 4:39:07 PM
Operator Name  :
Scan Software Version: 02.00(25)
Parameter List :
Instrument                        Cary 500
Instrument Version                500.05
Start (nm)                        1200.000
Stop (nm)                         200.000
X Mode                            Nanometers
Y Mode                            %T
Independent NIR                   On
Measurement Mode                  Auto
UV-Vis Data Interval (nm)         1.00
UV-Vis Ave. Time (sec)            0.100
UV-Vis SBW (nm)                   2.000
NIR Data Interval (nm)            1.00
NIR Ave. Time (sec)               0.200
NIR Energy                        2.75
Slit Height                       Full
Beam Mode                         Double
Signal-to-noise Mode              Off
UV Source                         On
Vis Source                        On
Third Source                      Off
Source Changeover (nm)            350.00
Detector Changeover (nm)          880.00
Baseline Correction               On
Baseline Type                     Zero/baseline correction
Baseline File Name                C:\Varian\Cary WinUV\Methods\Test\Standard Blocking.MSW
Baseline Std Ref File Name
Cycle Mode                        Off
Comments
Method Log     :
Method Name    : C:\Varian\Cary WinUV\Methods\Test\Standard Blocking.MSW
Date/Time stamp: 6/6/02 6:57:45 AM
Method Modifications:
Y mode Changed: 7/30/02 4:38:56 PM, Old:%T, New:Abs
End Method Modifications
<SBW (nm)> , 2.00
<Energy> , 2.75
<Slit height> , Full
<Current Wavelength> , 880.000
<SBW (nm)> , 2.00
<Energy> , 52.48
<Slit height> , Full
<Current Wavelength> , 250.000

Baseline 0%T,
Baseline 0%T
Collection Time: 7/30/02 4:44:44 PM
Operator Name  :
Scan Software Version: 02.00(25)
Parameter List :
Instrument                        Cary 500
Instrument Version                500.05
Start (nm)                        1200.000
Stop (nm)                         200.000
X Mode                            Nanometers
Y Mode                            %T
Independent NIR                   On
Measurement Mode                  Auto
UV-Vis Data Interval (nm)         1.00
UV-Vis Ave. Time (sec)            0.100
UV-Vis SBW (nm)                   2.000
NIR Data Interval (nm)            1.00
NIR Ave. Time (sec)               0.200
NIR Energy                        2.75
Slit Height                       Full
Beam Mode                         Double
Signal-to-noise Mode              Off
UV Source                         On
Vis Source                        On
Third Source                      Off
Source Changeover (nm)            350.00
Detector Changeover (nm)          880.00
Baseline Correction               On
Baseline Type                     Zero/baseline correction
Baseline File Name                C:\Varian\Cary WinUV\Methods\Test\Standard Blocking.MSW
Baseline Std Ref File Name
Cycle Mode                        Off
Comments
Method Log     :
Method Name    : C:\Varian\Cary WinUV\Methods\Test\Standard Blocking.MSW
Date/Time stamp: 6/6/02 6:57:45 AM
Method Modifications:
Y mode Changed: 7/30/02 4:38:56 PM, Old:%T, New:Abs
End Method Modifications
<SBW (nm)> , 2.00
<Energy> , 2.75
<Slit height> , Full
<Current Wavelength> , 880.000
<SBW (nm)> , 2.00
<Energy> , 398.11
<Slit height> , Full
<Current Wavelength> , 250.000

sample3,
sample3
Collection Time: 7/30/02 4:50:57 PM
Operator Name  :
Scan Software Version: 02.00(25)
Parameter List :
Instrument                        Cary 500
Instrument Version                500.05
Start (nm)                        2800.000
Stop (nm)                         250.000
X Mode                            Nanometers
Y Mode                            Abs
Independent NIR                   On
Measurement Mode                  Auto
UV-Vis Data Interval (nm)         2.00
UV-Vis Ave. Time (sec)            0.100
UV-Vis SBW (nm)                   2.000
NIR Scan Rate (nm/min)            600.000
NIR Data Interval (nm)            2.00
NIR Ave. Time (sec)               0.200
NIR Energy                        2.75
Slit Height                       Full
Beam Mode                         Double
Signal-to-noise Mode              Off
UV Source                         On
Vis Source                        On
Third Source                      Off
Source Changeover (nm)            350.00
Detector Changeover (nm)          880.00
Baseline Correction               On
Baseline Type                     Zero/baseline correction
Baseline File Name
Baseline Std Ref File Name
Cycle Mode                        Off
Comments
Method Log     :
Method Name    : C:\Varian\Cary WinUV\Methods\Test\Standard Blocking.MSW
Date/Time stamp: 6/6/02 6:57:45 AM
Method Modifications:
Y mode Changed: 7/30/02 4:38:56 PM, Old:%T, New:Abs
End Method Modifications
<SBW (nm)> , 2.00
<Energy> , 2.75
<Slit height> , Full
<Current Wavelength> , 876.000
<SBW (nm)> , 2.00
<Energy> , 398.11
<Slit height> , Full
<Current Wavelength> , 250.000

