sample1,,sample2,
Wavelength (nm),%T,Wavelength (nm),%T
2180.0,0.000407464,2180.0,0.007082401
2179.9,0.004345729,2179.9,0.007476543
2179.8,0.007336504,2179.8,0.007331934
2179.7,0.004363181,2179.7,0.009066664
2179.6,0.00313204,2179.6,0.006648009
2179.5,0.008572836,2179.5,0.006629662
2179.4,0.006289307,2179.4,0.007071657
2179.3,0.004639019,2179.3,0.006690703
2179.2,0.00510985,2179.2,0.004682641
2179.1,0.00776217,2179.1,0.01164561
2179.0,0.008643813,2179.0,0.006682484
2178.9,0.007354627,2178.9,0.011620782
2178.8,0.00939561,2178.8,0.005900765
2178.7,0.007314693,2178.7,0.01001613
2178.6,0.004286524,2178.6,0.005076329
2178.5,0.008934815,2178.5,0.010256764
2178.4,0.005693074,2178.4,0.013436059
2178.3,0.006489301,2178.3,0.005406301
2178.2,0.003364365,2178.2,0.010642358
2178.1,0.006641635,2178.1,0.008512286
2178.0,0.004516926,2178.0,0.008728185
2177.9,0.004473782,2177.9,0.01011983
2177.8,0.005786778,2177.8,0.012183584
2177.7,0.005538616,2177.7,0.009413696
2177.6,0.011541324,2177.6,0.009688102
2177.5,0.004898947,2177.5,0.006275237
2177.4,0.008090534,2177.4,0.012203597
2177.3,0.005944142,2177.3,0.010532217
2177.2,0.008604349,2177.2,0.011041651
2177.1,0.006414344,2177.1,0.008732827
2177.0,0.006880328,2177.0,0.010308942
2176.9,0.011086802,2176.9,0.011816161
2176.8,0.009434294,2176.8,0.014161154
2176.7,0.007148506,2176.7,0.012813089
2176.6,0.011063469,2176.6,0.006097207
2176.5,0.011712199,2176.5,0.013607326
2176.4,0.007999011,2176.4,0.013696441
2176.3,0.01331301,2176.3,0.006871422
2176.2,0.007138837,2176.2,0.011089715
2176.1,0.006110257,2176.1,0.008307767
2176.0,0.008305053,2176.0,0.005333566
2175.9,0.008362962,2175.9,0.011374193
2175.8,0.01216236,2175.8,0.010245485
2175.7,0.009124034,2175.7,0.010619042
2175.6,0.010922784,2175.6,0.017327186
2175.5,0.01211203,2175.5,0.011724965
2175.4,0.007210343,2175.4,0.009851551
2175.3,0.012495424,2175.3,0.009476408
2175.2,0.011370041,2175.2,0.012130056
2175.1,0.010622302,2175.1,0.01326706
2175.0,0.010249215,2175.0,0.013165972
2174.9,0.011977823,2174.9,0.010895099
2174.8,0.007926382,2174.8,0.010617438
2174.7,0.013990031,2174.7,0.012119821
2174.6,0.013879482,2174.6,0.010534035
2174.5,0.010564672,2174.5,0.014302078
2174.4,0.012074883,2174.4,0.016958034
2174.3,0.009052311,2174.3,0.014323399
2174.2,0.009819733,2174.2,0.012827765
2174.1,0.013216629,2174.1,0.01320863
2174.0,0.014727328,2174.0,0.01169884
2173.9,0.01170979,2173.9,0.013595103
2173.8,0.010970016,2173.8,0.01020737
2173.7,0.01737174,2173.7,0.012082304
2173.6,0.018114127,2173.6,0.011325895
2173.5,0.01624744,2173.5,0.014729273
2173.4,0.013984639,2173.4,0.013973488
2173.3,0.0139837,2173.3,0.016983908
2173.2,0.014725312,2173.2,0.016979679
2173.1,0.013975199,2173.1,0.01624167
2173.0,0.017741203,2173.0,0.015090258
2172.9,0.01360839,2172.9,0.016578546
2172.8,0.011990794,2172.8,0.017159389
2172.7,0.01721327,2172.7,0.013177239
2172.6,0.013581239,2172.6,0.016588574
2172.5,0.010946831,2172.5,0.018080467
2172.4,0.012460118,2172.4,0.013947285
2172.3,0.015834806,2172.3,0.019593533
2172.2,0.018457958,2172.2,0.01769362
2172.1,0.02034428,2172.1,0.020709829
2172.0,0.014323643,2172.0,0.018442089
2171.9,0.017710989,2171.9,0.018070424
2171.8,0.015833745,2171.8,0.020346804
2171.7,0.015443745,2171.7,0.019954428
2171.6,0.016196677,2171.6,0.018809116
2171.5,0.016967015,2171.5,0.018827392
2171.4,0.017694447,2171.4,0.021073306
2171.3,0.016195891,2171.3,0.02295699
2171.2,0.015060246,2171.2,0.020687366
2171.1,0.018052578,2171.1,0.025190827
2171.0,0.015811766,2171.0,0.019560458
2170.9,0.02331881,2170.9,0.026019206
2170.8,0.019540282,2170.8,0.024745777
2170.7,0.019547213,2170.7,0.022559978
2170.6,0.02179835,2170.6,0.020665454
2170.5,0.021105217,2170.5,0.027105864
2170.4,0.022476278,2170.4,0.027363218
2170.3,0.02217447,2170.3,0.025537057
2170.2,0.020642443,2170.2,0.02675537
2170.1,0.022536566,2170.1,0.027335932
2170.0,0.024047459,2170.0,0.026278757
2169.9,0.022926347,2169.9,0.030541983
2169.8,0.02830027,2169.8,0.025655318
2169.7,0.022081891,2169.7,0.025455348
2169.6,0.024438603,2169.6,0.030059345
2169.5,0.02818382,2169.5,0.033512268
2169.4,0.030551933,2169.4,0.029401932
2169.3,0.030539153,2169.3,0.030527532
2169.2,0.028267786,2169.2,0.028649071
2169.1,0.028294533,2169.1,0.03164731
2169.0,0.028259916,2169.0,0.036519594
2168.9,0.024882756,2168.9,0.030524485
2168.8,0.0301494,2168.8,0.033896737
2168.7,0.028621199,2168.7,0.037257556
2168.6,0.029382767,2168.6,0.035401154
2168.5,0.034996204,2168.5,0.037618637
2168.4,0.030113166,2168.4,0.038010322
2168.3,0.034249194,2168.3,0.038405947
2168.2,0.034260739,2168.2,0.039153703
2168.1,0.034605656,2168.1,0.036862675
2168.0,0.034254115,2168.0,0.042143341
2167.9,0.037993927,2167.9,0.036093295
2167.8,0.036879096,2167.8,0.042884216
2167.7,0.037245233,2167.7,0.042522762
2167.6,0.042463452,2167.6,0.048468135
2167.5,0.045134068,2167.5,0.043982662
2167.4,0.042482864,2167.4,0.047136035
2167.3,0.042055462,2167.3,0.049145002
2167.2,0.039483309,2167.2,0.04964507
2167.1,0.048117958,2167.1,0.050330862
2167.0,0.050348636,2167.0,0.05259319
2166.9,0.047338136,2166.9,0.052979596
2166.8,0.050330844,2166.8,0.051483139
2166.7,0.051198412,2166.7,0.055593614
2166.6,0.055569649,2166.6,0.05745919
2166.5,0.05330367,2166.5,0.059345178
2166.4,0.053878147,2166.4,0.059620291
2166.3,0.051793821,2166.3,0.062158279
2166.2,0.055144109,2166.2,0.060660809
2166.1,0.060898151,2166.1,0.065192804
2166.0,0.058058392,2166.0,0.064423203
2165.9,0.058483288,2165.9,0.064078376
2165.8,0.063077047,2165.8,0.064080656
2165.7,0.064007841,2165.7,0.066642642
2165.6,0.068532772,2165.6,0.072686203
2165.5,0.06786003,2165.5,0.072003149
2165.4,0.065879643,2165.4,0.073422715
2165.3,0.072686441,2165.3,0.076029658
2165.2,0.073443122,2165.2,0.074896231
2165.1,0.076013349,2165.1,0.082796767
2165.0,0.079864942,2165.0,0.082809635
2164.9,0.081319377,2164.9,0.088453121
2164.8,0.082799703,2164.8,0.088025585
2164.7,0.083473898,2164.7,0.089420788
2164.6,0.082019426,2164.6,0.094770201
2164.5,0.090682171,2164.5,0.095156789
2164.4,0.092500992,2164.4,0.092445247
2164.3,0.093940608,2164.3,0.101081193
2164.2,0.100743271,2164.2,0.101484321
2164.1,0.100722186,2164.1,0.102915637
2164.0,0.10709028,2164.0,0.107417643
2163.9,0.106349833,2163.9,0.110862337
2163.8,0.108187914,2163.8,0.115294732
2163.7,0.111086689,2163.7,0.115239203
2163.6,0.116873764,2163.6,0.11831452
2163.5,0.121667437,2163.5,0.124813572
2163.4,0.125014544,2163.4,0.129498422
2163.3,0.125948042,2163.3,0.129107088
2163.2,0.132767737,2163.2,0.132925794
2163.1,0.136661455,2163.1,0.136478365
2163.0,0.13998276,2163.0,0.141345784
2162.9,0.141103759,2162.9,0.145121053
2162.8,0.147260398,2162.8,0.151135847
2162.7,0.152729362,2162.7,0.161351651
2162.6,0.161210954,2162.6,0.163562343
2162.5,0.162626669,2162.5,0.16636692
2162.4,0.169020385,2162.4,0.174140155
2162.3,0.176452845,2162.3,0.17723918
2162.2,0.182123497,2162.2,0.180970952
2162.1,0.190633535,2162.1,0.187923729
2162.0,0.19599013,2162.0,0.195948124
2161.9,0.20028241,2161.9,0.198944911
2161.8,0.208873704,2161.8,0.209735632
2161.7,0.217744261,2161.7,0.213200524
2161.6,0.223366469,2161.6,0.221050605
2161.5,0.230419606,2161.5,0.230373308
2161.4,0.24078007,2161.4,0.241474628
2161.3,0.244585499,2161.3,0.244134709
2161.2,0.255273193,2161.2,0.25628373
2161.1,0.268788368,2161.1,0.262291551
2161.0,0.277143657,2161.0,0.267572403
2160.9,0.287111253,2160.9,0.281672239
2160.8,0.296628594,2160.8,0.291869521
2160.7,0.30715695,2160.7,0.296250254
2160.6,0.32147032,2160.6,0.319233298
2160.5,0.331662715,2160.5,0.328116417
2160.4,0.340662777,2160.4,0.333885998
2160.3,0.356469899,2160.3,0.343772501
2160.2,0.368932128,2160.2,0.357726365
2160.1,0.391110361,2160.1,0.376627445
2160.0,0.40325889,2160.0,0.391705751
2159.9,0.414186955,2159.9,0.400281459
2159.8,0.439864755,2159.8,0.415855736
2159.7,0.4565593,2159.7,0.433815777
2159.6,0.478661418,2159.6,0.456492245
2159.5,0.488337189,2159.5,0.463726431
2159.4,0.508351088,2159.4,0.481421828
2159.3,0.531965792,2159.3,0.499935269
2159.2,0.566188574,2159.2,0.524997413
2159.1,0.578882158,2159.1,0.549313724
2159.0,0.605517566,2159.0,0.571704865
2158.9,0.632724106,2158.9,0.585746348
2158.8,0.661663413,2158.8,0.618356049
2158.7,0.684712291,2158.7,0.64035815
2158.6,0.718884587,2158.6,0.666647732
2158.5,0.745555222,2158.5,0.691968501
2158.4,0.779543519,2158.4,0.728724122
2158.3,0.83796829,2158.3,0.764225006
2158.2,0.865100861,2158.2,0.796412885
2158.1,0.904908121,2158.1,0.83799082
2158.0,0.946625769,2158.0,0.86386472
2157.9,0.996136665,2157.9,0.910132945
2157.8,1.031934381,2157.8,0.944967926
2157.7,1.071722865,2157.7,0.986121953
2157.6,1.11903429,2157.6,1.012937307
2157.5,1.19365108,2157.5,1.083127737
2157.4,1.254436493,2157.4,1.129636765
2157.3,1.296297789,2157.3,1.176917553
2157.2,1.382333636,2157.2,1.246940613
2157.1,1.451456904,2157.1,1.29414618
2157.0,1.524436712,2157.0,1.366565347
2156.9,1.576031566,2156.9,1.421384335
2156.8,1.675971746,2156.8,1.501113176
2156.7,1.749243379,2156.7,1.565274835
2156.6,1.863654137,2156.6,1.678410888
2156.5,1.955221176,2156.5,1.737400889
2156.4,2.069723606,2156.4,1.846532583
2156.3,2.159256935,2156.3,1.926684618
2156.2,2.288487196,2156.2,2.047198534
2156.1,2.36215353,2156.1,2.121902943
2156.0,2.450180292,2156.0,2.195539951
2155.9,2.604157925,2155.9,2.338982105
2155.8,2.745934963,2155.8,2.442735672
2155.7,2.884763002,2155.7,2.615534544
2155.6,3.025647879,2155.6,2.718516827
2155.5,3.183800697,2155.5,2.860778332
2155.4,3.340173244,2155.4,3.017519712
2155.3,3.563862562,2155.3,3.208152294
2155.2,3.688013554,2155.2,3.342000008
2155.1,3.849654198,2155.1,3.493962526
2155.0,4.084518909,2155.0,3.696341038
2154.9,4.32998085,2154.9,3.93639946
2154.8,4.499409676,2154.8,4.141382694
2154.7,4.73614502,2154.7,4.292016983
2154.6,4.978340626,2154.6,4.530008316
2154.5,5.185509682,2154.5,4.808479309
2154.4,5.409061909,2154.4,5.017799377
2154.3,5.620389938,2154.3,5.154391766
2154.2,5.91769886,2154.2,5.417891026
2154.1,6.130261421,2154.1,5.750815868
2154.0,6.485667706,2154.0,6.012609482
2153.9,6.729540348,2153.9,6.290870667
2153.8,7.04613924,2153.8,6.60681963
2153.7,7.318405628,2153.7,6.874582291
2153.6,7.731285572,2153.6,7.325191975
2153.5,7.945536137,2153.5,7.475152016
2153.4,8.244235039,2153.4,7.853806973
2153.3,8.684488297,2153.3,8.159925461
2153.2,8.993094444,2153.2,8.648975372
2153.1,9.457005501,2153.1,8.989742279
2153.0,9.804665565,2153.0,9.302178383
2152.9,10.20420265,2152.9,9.889460564
2152.8,10.64788723,2152.8,10.15564156
2152.7,10.97677898,2152.7,10.59844875
2152.6,11.25293255,2152.6,10.92293262
2152.5,11.76601696,2152.5,11.29963112
2152.4,12.00721741,2152.4,11.61694145
2152.3,12.68591881,2152.3,12.30310631
2152.2,13.0975914,2152.2,12.75833893
2152.1,13.41378117,2152.1,13.05120564
2152.0,13.90191936,2152.0,13.55270576
2151.9,14.53958607,2151.9,14.26477909
2151.8,14.93793106,2151.8,14.59661388
2151.7,15.25899792,2151.7,14.93535233
2151.6,15.74822807,2151.6,15.48654556
2151.5,16.40253639,2151.5,16.20472145
2151.4,17.06255531,2151.4,16.84646225
2151.3,17.44814873,2151.3,17.20369339
2151.2,18.02547646,2151.2,17.82875443
2151.1,18.58624458,2151.1,18.42142105
2151.0,19.16666412,2151.0,18.98051643
2150.9,19.56958389,2150.9,19.37505531
2150.8,20.0414505,2150.8,19.90276337
2150.7,20.59252739,2150.7,20.47974205
2150.6,21.41274834,2150.6,21.23418236
2150.5,21.90013885,2150.5,21.8405304
2150.4,22.36351395,2150.4,22.30309296
2150.3,23.17869949,2150.3,23.19354057
2150.2,23.84802818,2150.2,23.79133797
2150.1,24.28781509,2150.1,24.34655571
2150.0,24.81081009,2150.0,24.85260963
2149.9,25.56604767,2149.9,25.61638069
2149.8,26.1279335,2149.8,26.19306755
2149.7,26.93823051,2149.7,26.99283028
2149.6,27.47177124,2149.6,27.64392281
2149.5,28.24727631,2149.5,28.4099884
2149.4,28.82701492,2149.4,28.99054909
2149.3,29.49630356,2149.3,29.72198486
2149.2,30.07971382,2149.2,30.21598816
2149.1,30.71421432,2149.1,30.92243576
2149.0,31.37446022,2149.0,31.5962944
2148.9,32.03499222,2148.9,32.26141739
2148.8,32.86826706,2148.8,33.10431671
2148.7,33.49065781,2148.7,33.80051804
2148.6,34.26916122,2148.6,34.60966492
2148.5,34.86680222,2148.5,35.20713043
2148.4,35.62623215,2148.4,36.05319595
2148.3,36.28731537,2148.3,36.74385452
2148.2,36.93603516,2148.2,37.3669014
2148.1,37.5398941,2148.1,37.92356873
2148.0,38.61545944,2148.0,38.9911232
2147.9,39.22624969,2147.9,39.75772858
2147.8,39.91868973,2147.8,40.47980499
2147.7,40.54610825,2147.7,41.21094131
2147.6,41.38828278,2147.6,42.08017731
2147.5,42.15071106,2147.5,42.74533463
2147.4,42.67541122,2147.4,43.30331039
2147.3,43.39510727,2147.3,44.0560379
2147.2,44.02732849,2147.2,44.68054581
2147.1,44.92843628,2147.1,45.59436417
2147.0,45.4717598,2147.0,46.30528641
2146.9,46.33166885,2146.9,47.12141037
2146.8,46.97266388,2146.8,47.76656342
2146.7,47.75445175,2146.7,48.5588913
2146.6,48.44440842,2146.6,49.25410461
2146.5,48.9958992,2146.5,49.88116455
2146.4,49.55065155,2146.4,50.40579987
2146.3,50.46493912,2146.3,51.34287643
2146.2,51.21456909,2146.2,52.26680756
2146.1,51.7956543,2146.1,52.75579071
2146.0,52.515625,2146.0,53.55823517
2145.9,53.08911896,2145.9,54.21524048
2145.8,53.84647751,2145.8,54.91422272
2145.7,54.37724686,2145.7,55.50083923
2145.6,54.92337799,2145.6,56.14647675
2145.5,55.40884018,2145.5,56.5953331
2145.4,56.25494766,2145.4,57.51520538
2145.3,56.88951111,2145.3,58.12386322
2145.2,57.53562546,2145.2,58.8026123
2145.1,58.11413574,2145.1,59.46807861
2145.0,58.67804718,2145.0,60.0984993
2144.9,59.3604393,2144.9,60.73256302
2144.8,59.8483429,2144.8,61.20023727
2144.7,60.26452637,2144.7,61.72930527
2144.6,60.85453796,2144.6,62.38918304
2144.5,61.69062805,2144.5,63.06907654
2144.4,62.1748085,2144.4,63.69215775
2144.3,62.67035675,2144.3,64.23082733
2144.2,63.1237793,2144.2,64.713974
2144.1,63.76469803,2144.1,65.29201508
2144.0,64.14657593,2144.0,65.77862549
2143.9,64.54621887,2143.9,66.2171936
2143.8,64.94817352,2143.8,66.59127808
2143.7,65.74539185,2143.7,67.2999115
2143.6,66.08432007,2143.6,67.82944489
2143.5,66.47245789,2143.5,68.18852234
2143.4,66.8928299,2143.4,68.70149994
2143.3,67.47205353,2143.3,69.18076324
2143.2,67.81826782,2143.2,69.74156189
2143.1,68.23081207,2143.1,69.9324646
2143.0,68.62211609,2143.0,70.38539886
2142.9,68.95184326,2142.9,71.059021
2142.8,69.48670959,2142.8,71.57896423
2142.7,69.97746277,2142.7,71.76686096
2142.6,70.28466034,2142.6,72.147789
2142.5,70.56093597,2142.5,72.80368805
2142.4,70.99784088,2142.4,73.22633362
2142.3,71.33295441,2142.3,73.2408371
2142.2,71.71769714,2142.2,73.71517181
2142.1,71.88569641,2142.1,74.13451385
2142.0,72.26141357,2142.0,74.46646118
2141.9,72.69615173,2141.9,74.80110168
2141.8,72.91021729,2141.8,74.77104187
2141.7,73.13653564,2141.7,75.59008026
2141.6,73.44868469,2141.6,75.78504181
2141.5,73.82949066,2141.5,75.92113495
2141.4,74.08211517,2141.4,76.29035187
2141.3,74.2233963,2141.3,76.67430115
2141.2,74.45107269,2141.2,76.80014801
2141.1,74.85897827,2141.1,77.06376648
2141.0,75.07592773,2141.0,77.46681213
2140.9,75.20477295,2140.9,77.71207428
2140.8,75.48053741,2140.8,77.94714355
2140.7,75.6989212,2140.7,78.04878998
2140.6,75.86779022,2140.6,78.24138641
2140.5,75.89675903,2140.5,78.50724792
2140.4,76.07900238,2140.4,78.69591522
2140.3,76.27332306,2140.3,78.68225861
2140.2,76.36488342,2140.2,78.92454529
2140.1,76.55393982,2140.1,79.22406006
2140.0,76.64507294,2140.0,79.35652161
2139.9,76.71412659,2139.9,79.26713562
2139.8,76.84977722,2139.8,79.4115448
2139.7,76.94206238,2139.7,79.63587952
2139.6,76.94793701,2139.6,79.74421692
2139.5,76.97954559,2139.5,79.58242035
2139.4,77.10057068,2139.4,79.78495026
2139.3,77.06609344,2139.3,79.87870789
2139.2,77.09915924,2139.2,79.94708252
2139.1,77.1373291,2139.1,79.8942337
2139.0,77.07376099,2139.0,79.85058594
2138.9,77.02236176,2138.9,79.92848206
2138.8,77.05200195,2138.8,79.99924469
2138.7,77.01383209,2138.7,79.80338287
2138.6,76.91392517,2138.6,79.82887268
2138.5,76.81109619,2138.5,79.84341431
2138.4,76.88742065,2138.4,79.75187683
2138.3,76.69217682,2138.3,79.51023102
2138.2,76.52622223,2138.2,79.61009979
2138.1,76.37757874,2138.1,79.3860321
2138.0,76.28900909,2138.0,79.13051605
2137.9,76.06471252,2137.9,79.18136597
2137.8,75.99292755,2137.8,79.05020142
2137.7,75.86063385,2137.7,78.87359619
2137.6,75.57584381,2137.6,78.5689621
2137.5,75.3393631,2137.5,78.34300232
2137.4,75.12531281,2137.4,78.15996552
2137.3,74.99668884,2137.3,78.0952301
2137.2,74.70475769,2137.2,77.77855682
2137.1,74.49295807,2137.1,77.50049591
2137.0,74.30599213,2137.0,77.47730255
2136.9,74.07043457,2136.9,77.06301117
2136.8,73.75218201,2136.8,76.76398468
2136.7,73.46945953,2136.7,76.63638306
2136.6,73.16796112,2136.6,76.09426117
2136.5,72.87757874,2136.5,76.02262878
2136.4,72.54938507,2136.4,75.73845673
2136.3,72.19108582,2136.3,75.35549164
2136.2,71.89348602,2136.2,75.11911011
2136.1,71.56295013,2136.1,74.73065186
2136.0,71.3177948,2136.0,74.47019958
2135.9,70.78926849,2135.9,73.99071503
2135.8,70.32360077,2135.8,73.46883392
2135.7,70.01902771,2135.7,73.15826416
2135.6,69.63209534,2135.6,72.79220581
2135.5,69.20941162,2135.5,72.26473236
2135.4,68.751297,2135.4,71.88657379
2135.3,68.42657471,2135.3,71.56512451
2135.2,67.97829437,2135.2,71.09204865
2135.1,67.64860535,2135.1,70.69365692
2135.0,67.06772614,2135.0,70.14555359
2134.9,66.56263733,2134.9,69.63845825
2134.8,66.00785065,2134.8,69.08614349
2134.7,65.73571777,2134.7,68.78873444
2134.6,65.21031189,2134.6,68.15480042
2134.5,64.60422516,2134.5,67.6943512
2134.4,64.21657562,2134.4,67.15151978
2134.3,63.80976486,2134.3,66.76852417
2134.2,62.96038055,2134.2,65.94127655
2134.1,62.49697113,2134.1,65.38487244
2134.0,61.81174088,2134.0,64.84291077
2133.9,61.2722168,2133.9,64.22277832
2133.8,60.91046143,2133.8,63.62627029
2133.7,60.26028824,2133.7,63.06661987
2133.6,59.67266083,2133.6,62.52045441
2133.5,59.20428467,2133.5,62.02380753
2133.4,58.59029388,2133.4,61.40868759
2133.3,57.78132248,2133.3,60.60934067
2133.2,57.31581879,2133.2,60.05919647
2133.1,56.61791992,2133.1,59.35767365
2133.0,55.98543167,2133.0,58.63584137
2132.9,55.23815155,2132.9,57.91964722
2132.8,54.69803619,2132.8,57.29455185
2132.7,54.11677551,2132.7,56.69803619
2132.6,53.43842316,2132.6,56.0599556
2132.5,52.72366333,2132.5,55.2101593
2132.4,51.82619095,2132.4,54.21435165
2132.3,51.14913559,2132.3,53.71322632
2132.2,50.4448967,2132.2,52.81925964
2132.1,49.7876358,2132.1,52.15690613
2132.0,48.94124222,2132.0,51.32806778
2131.9,48.41088486,2131.9,50.72140121
2131.8,47.76015854,2131.8,50.07730865
2131.7,47.07621765,2131.7,49.3392334
2131.6,46.1149826,2131.6,48.51459122
2131.5,45.46798325,2131.5,47.68388748
2131.4,44.75338364,2131.4,46.91441727
2131.3,43.9268074,2131.3,46.11893845
2131.2,43.25286865,2131.2,45.40590668
2131.1,42.5918808,2131.1,44.63561249
2131.0,41.88555908,2131.0,44.00144958
2130.9,41.15116882,2130.9,43.25610733
2130.8,40.42405319,2130.8,42.49198914
2130.7,39.29676056,2130.7,41.47148514
2130.6,38.68286133,2130.6,40.6595726
2130.5,37.90470505,2130.5,39.77810287
2130.4,37.27771378,2130.4,39.2042923
2130.3,36.40856934,2130.3,38.22134399
2130.2,35.73575974,2130.2,37.52541351
2130.1,35.17118835,2130.1,36.96918869
2130.0,34.48830032,2130.0,36.24614334
2129.9,33.61349869,2129.9,35.32821655
2129.8,32.92695999,2129.8,34.54510117
2129.7,32.19155884,2129.7,33.75643921
2129.6,31.41227722,2129.6,32.93071747
2129.5,30.81742859,2129.5,32.35348129
2129.4,30.13932037,2129.4,31.53806877
2129.3,29.43733978,2129.3,30.87859535
2129.2,28.88868141,2129.2,30.26893997
2129.1,28.1756916,2129.1,29.54307556
2129.0,27.28034019,2129.0,28.55805779
2128.9,26.66612053,2128.9,27.85854721
2128.8,25.97033691,2128.8,27.22675133
2128.7,25.3500576,2128.7,26.55493927
2128.6,24.62517929,2128.6,25.84494019
2128.5,24.00216866,2128.5,25.2031002
2128.4,23.58457375,2128.4,24.65645981
2128.3,22.87441063,2128.3,23.9736557
2128.2,22.36134148,2128.2,23.3894825
2128.1,21.60873032,2128.1,22.60775185
2128.0,21.00060844,2128.0,22.02013397
2127.9,20.32475853,2127.9,21.28592491
2127.8,19.86083984,2127.8,20.80190659
2127.7,19.16468811,2127.7,20.09834671
2127.6,18.73435593,2127.6,19.55326271
2127.5,18.27305984,2127.5,19.06333351
2127.4,17.64430046,2127.4,18.48835564
2127.3,17.00649643,2127.3,17.7134285
2127.2,16.4949646,2127.2,17.24174118
2127.1,15.93815994,2127.1,16.63487244
2127.0,15.39950943,2127.0,16.08939934
2126.9,14.97804642,2126.9,15.57667732
2126.8,14.40705967,2126.8,15.03868675
2126.7,14.00438118,2126.7,14.63243675
2126.6,13.55313206,2126.6,14.14772224
2126.5,13.15398979,2126.5,13.70725918
2126.4,12.59901333,2126.4,13.14933872
2126.3,12.15454006,2126.3,12.67129135
2126.2,11.7262125,2126.2,12.21130085
2126.1,11.29729176,2126.1,11.76268482
2126.0,10.85976696,2126.0,11.3297205
2125.9,10.49049377,2125.9,10.90325451
2125.8,10.18164635,2125.8,10.60106277
2125.7,9.765758514,2125.7,10.13955975
2125.6,9.365439415,2125.6,9.691156387
2125.5,8.864330292,2125.5,9.227243423
2125.4,8.524084091,2125.4,8.846921921
2125.3,8.141281128,2125.3,8.452537537
2125.2,7.915116787,2125.2,8.173920631
2125.1,7.47749567,2125.1,7.780749321
2125.0,7.172273636,2125.0,7.469425201
2124.9,6.936672211,2124.9,7.19641161
2124.8,6.662984848,2124.8,6.941304207
2124.7,6.321289539,2124.7,6.587203026
2124.6,6.045064926,2124.6,6.27355814
2124.5,5.744214535,2124.5,5.955404282
2124.4,5.493293762,2124.4,5.717566013
2124.3,5.224422455,2124.3,5.450004578
2124.2,4.989151478,2124.2,5.204131603
2124.1,4.788163185,2124.1,4.988302708
2124.0,4.574546337,2124.0,4.752224922
2123.9,4.323338509,2123.9,4.504137039
2123.8,4.060676575,2123.8,4.250276089
2123.7,3.851629019,2123.7,4.015091419
2123.6,3.680087566,2123.6,3.822777033
2123.5,3.536194563,2123.5,3.659246922
2123.4,3.324667454,2123.4,3.432681799
2123.3,3.148673773,2123.3,3.266357183
2123.2,3.029690266,2123.2,3.149365187
2123.1,2.86408186,2123.1,2.993403673
2123.0,2.748829365,2123.0,2.847757816
2122.9,2.574522257,2122.9,2.689930677
2122.8,2.443961382,2122.8,2.534184694
2122.7,2.302367687,2122.7,2.396151304
2122.6,2.212836504,2122.6,2.306127548
2122.5,2.080554008,2122.5,2.165487766
2122.4,1.990692735,2122.4,2.090722322
2122.3,1.884431958,2122.3,1.970043778
2122.2,1.814916492,2122.2,1.88140595
2122.1,1.687162519,2122.1,1.747794867
2122.0,1.60848403,2122.0,1.679924488
2121.9,1.532735705,2121.9,1.589324355
2121.8,1.470566869,2121.8,1.516296029
2121.7,1.372800827,2121.7,1.42611897
2121.6,1.310653448,2121.6,1.364085555
2121.5,1.254484653,2121.5,1.302854776
2121.4,1.201292872,2121.4,1.245222092
2121.3,1.14035809,2121.3,1.190047622
2121.2,1.074595332,2121.2,1.114952564
2121.1,1.026422858,2121.1,1.061181307
2121.0,0.969417512,2121.0,1.004228592
2120.9,0.934033871,2120.9,0.967142344
2120.8,0.886402667,2120.8,0.913292527
2120.7,0.84716922,2120.7,0.883359194
2120.6,0.813686013,2120.6,0.848971784
2120.5,0.778250516,2120.5,0.80987829
2120.4,0.739315093,2120.4,0.763543189
2120.3,0.700768352,2120.3,0.72591877
2120.2,0.661874831,2120.2,0.70020628
2120.1,0.641871929,2120.1,0.662904024
2120.0,0.614731371,2120.0,0.629811168
2119.9,0.57700789,2119.9,0.605442822
2119.8,0.563563645,2119.8,0.581230402
2119.7,0.533561945,2119.7,0.556086063
2119.6,0.520580351,2119.6,0.538662195
2119.5,0.492790818,2119.5,0.50832206
2119.4,0.472905546,2119.4,0.488978207
2119.3,0.453491271,2119.3,0.465780079
2119.2,0.444293916,2119.2,0.454418182
2119.1,0.417657107,2119.1,0.429639459
2119.0,0.401926309,2119.0,0.412485361
2118.9,0.394114018,2118.9,0.405348748
2118.8,0.378004432,2118.8,0.380875945
2118.7,0.35805437,2118.7,0.368428171
2118.6,0.343639016,2118.6,0.347472698
2118.5,0.327972621,2118.5,0.338527352
2118.4,0.318448097,2118.4,0.322348625
2118.3,0.30656305,2118.3,0.31071651
2118.2,0.289414436,2118.2,0.300040275
2118.1,0.281404555,2118.1,0.293398142
2118.0,0.273049921,2118.0,0.277867317
2117.9,0.264999181,2117.9,0.270712435
2117.8,0.251138568,2117.8,0.260232002
2117.7,0.245584622,2117.7,0.248874113
2117.6,0.233000517,2117.6,0.23851122
2117.5,0.227245808,2117.5,0.2352034
2117.4,0.215094447,2117.4,0.222036749
2117.3,0.216297627,2117.3,0.214780614
2117.2,0.203254536,2117.2,0.212725341
2117.1,0.196963415,2117.1,0.199630484
2117.0,0.194456935,2117.0,0.195545122
2116.9,0.184167147,2116.9,0.18106994
2116.8,0.177839801,2116.8,0.181755155
2116.7,0.169824198,2116.7,0.174739704
2116.6,0.165726647,2116.6,0.170469344
2116.5,0.162202448,2116.5,0.159883216
2116.4,0.153291628,2116.4,0.154673398
2116.3,0.154938564,2116.3,0.153710306
2116.2,0.142975286,2116.2,0.14953512
2116.1,0.142884776,2116.1,0.143978506
2116.0,0.136020511,2116.0,0.135797113
2115.9,0.130617127,2115.9,0.133141726
2115.8,0.127041265,2115.8,0.129705757
2115.7,0.126625761,2115.7,0.128951103
2115.6,0.119454242,2115.6,0.124509513
2115.5,0.113097809,2115.5,0.12048135
2115.4,0.111688048,2115.4,0.11415831
2115.3,0.113344021,2115.3,0.110225648
2115.2,0.105672024,2115.2,0.103995577
2115.1,0.102931969,2115.1,0.103565216
2115.0,0.099517033,2115.0,0.102768928
2114.9,0.099179268,2114.9,0.101874523
2114.8,0.090838671,2114.8,0.09589351
2114.7,0.092702553,2114.7,0.090932585
2114.6,0.092159279,2114.6,0.092056535
2114.5,0.082934648,2114.5,0.088244766
2114.4,0.086796194,2114.4,0.083694085
2114.3,0.079722382,2114.3,0.082821913
2114.2,0.077225544,2114.2,0.07944262
2114.1,0.073726304,2114.1,0.075799204
2114.0,0.075828038,2114.0,0.077172436
2113.9,0.074836574,2113.9,0.069212623
2113.8,0.067111388,2113.8,0.066914327
2113.7,0.069227815,2113.7,0.067049824
2113.6,0.069907658,2113.6,0.069470599
2113.5,0.067731731,2113.5,0.065180883
2113.4,0.0596167,2113.4,0.067618281
2113.3,0.059002429,2113.3,0.062612206
2113.2,0.061484415,2113.2,0.056791335
2113.1,0.058814541,2113.1,0.054204963
2113.0,0.058901142,2113.0,0.060627889
2112.9,0.057579823,2112.9,0.057700049
2112.8,0.053798296,2112.8,0.052309118
2112.7,0.054418582,2112.7,0.049825199
2112.6,0.050534647,2112.6,0.051098298
2112.5,0.050805207,2112.5,0.053243637
2112.4,0.047945797,2112.4,0.044523813
2112.3,0.041257344,2112.3,0.050177205
2112.2,0.048341453,2112.2,0.049317926
2112.1,0.045868695,2112.1,0.043245941
2112.0,0.043921646,2112.0,0.048664663
2111.9,0.048511319,2111.9,0.041819554
2111.8,0.041946236,2111.8,0.037951294
2111.7,0.041418407,2111.7,0.039926585
2111.6,0.036608953,2111.6,0.039344758
2111.5,0.039449185,2111.5,0.042173345
2111.4,0.037706804,2111.4,0.035017535
2111.3,0.036283597,2111.3,0.034388684
2111.2,0.040668849,2111.2,0.037177023
2111.1,0.03431984,2111.1,0.039605137
2111.0,0.032544672,2111.0,0.037288688
2110.9,0.032945611,2110.9,0.035507645
2110.8,0.032549385,2110.8,0.036056232
2110.7,0.031749409,2110.7,0.031185506
2110.6,0.033251006,2110.6,0.032488018
2110.5,0.028913204,2110.5,0.023253283
2110.4,0.028489839,2110.4,0.031233901
2110.3,0.025237022,2110.3,0.028965414
2110.2,0.026768342,2110.2,0.026252184
2110.1,0.029088713,2110.1,0.028822038
2110.0,0.028592659,2110.0,0.027111495
2109.9,0.026114322,2109.9,0.026401231
2109.8,0.029595412,2109.8,0.024738306
2109.7,0.02912787,2109.7,0.024343835
2109.6,0.026797939,2109.6,0.027482264
2109.5,0.022773329,2109.5,0.025654014
2109.4,0.022555353,2109.4,0.02660857
2109.3,0.024742927,2109.3,0.024358843
2109.2,0.023487758,2109.2,0.020392766
2109.1,0.021303928,2109.1,0.024225472
2109.0,0.023688162,2109.0,0.022577353
2108.9,0.019989792,2108.9,0.024546586
2108.8,0.021327695,2108.8,0.019499198
2108.7,0.027269317,2108.7,0.018718047
2108.6,0.013995699,2108.6,0.023088122
2108.5,0.020352662,2108.5,0.019707268
2108.4,0.019114232,2108.4,0.022117145
2108.3,0.022442676,2108.3,0.020704424
2108.2,0.021070624,2108.2,0.018731145
2108.1,0.022560408,2108.1,0.017144946
2108.0,0.01949513,2108.0,0.017650176
2107.9,0.02093477,2107.9,0.019970125
2107.8,0.018466979,2107.8,0.020555338
2107.7,0.017077079,2107.7,0.017132262
2107.6,0.017321944,2107.6,0.014312754
2107.5,0.015366364,2107.5,0.018148459
2107.4,0.016259691,2107.4,0.014687607
2107.3,0.018202133,2107.3,0.012653396
2107.2,0.017356917,2107.2,0.016173672
2107.1,0.014260788,2107.1,0.014142657
2107.0,0.014412683,2107.0,0.021330789
2106.9,0.01126741,2106.9,0.014155656
2106.8,0.015878648,2106.8,0.014332451
2106.7,0.016422573,2106.7,0.014148906
2106.6,0.016629759,2106.6,0.016216684
2106.5,0.014597879,2106.5,0.015291923
2106.4,0.015125466,2106.4,0.009839896
2106.3,0.012528662,2106.3,0.014570756
2106.2,0.009084526,2106.2,0.012157722
2106.1,0.014297679,2106.1,0.011858664
2106.0,0.016262434,2106.0,0.015062267
2105.9,0.012022343,2105.9,0.014204785
2105.8,0.012943381,2105.8,0.00956836
2105.7,0.010304645,2105.7,0.010012294
2105.6,0.014229797,2105.6,0.018420847
2105.5,0.014811027,2105.5,0.010924469
2105.4,0.009394109,2105.4,0.013988354
2105.3,0.016858948,2105.3,0.012622127
2105.2,0.011094471,2105.2,0.010247704
2105.1,0.008164116,2105.1,0.013190361
2105.0,0.013491645,2105.0,0.00606991
2104.9,0.00960831,2104.9,0.008945647
2104.8,0.014483984,2104.8,0.012125534
2104.7,0.01263636,2104.7,0.009164117
2104.6,0.012242599,2104.6,0.00626998
2104.5,0.012980779,2104.5,0.011130031
2104.4,0.01223727,2104.4,0.01143314
2104.3,0.012997727,2104.3,0.015074099
2104.2,0.011221933,2104.2,0.007379439
2104.1,0.010395633,2104.1,0.01407323
2104.0,0.009925581,2104.0,0.005853734
2103.9,0.006666839,2103.9,0.008780524
2103.8,0.016296484,2103.8,0.012907495
2103.7,0.009248059,2103.7,0.012578422
2103.6,0.00961189,2103.6,0.009549608
2103.5,0.005544463,2103.5,0.006929525
2103.4,0.007389871,2103.4,0.01215892
2103.3,0.011848093,2103.3,0.007373659
2103.2,0.009611093,2103.2,0.003609574
2103.1,0.006238679,2103.1,0.005462619
2103.0,0.008917223,2103.0,0.005880405
2102.9,0.008429754,2102.9,0.009607268
2102.8,0.012192185,2102.8,0.002503426
2102.7,0.009195285,2102.7,0.009139473
2102.6,0.006647991,2102.6,0.009568722
2102.5,0.005562804,2102.5,0.007008965
2102.4,0.006187861,2102.4,0.008806265
2102.3,0.010772401,2102.3,0.006555432
2102.2,0.008081916,2102.2,0.004028101
2102.1,0.012448235,2102.1,0.005882567
2102.0,0.012248307,2102.0,0.009917618
2101.9,0.008766591,2101.9,0.00802171
2101.8,0.009198637,2101.8,0.008076827
2101.7,0.008863566,2101.7,0.011116134
2101.6,0.003615549,2101.6,0.005855194
2101.5,0.008023196,2101.5,0.00587362
2101.4,0.009179475,2101.4,0.010611883
2101.3,0.004034236,2101.3,0.00632535
2101.2,0.00695065,2101.2,0.006687549
2101.1,0.006554055,2101.1,0.006683684
2101.0,0.006605699,2101.0,0.00817492
2100.9,0.008480161,2100.9,0.007790014
2100.8,0.007681096,2100.8,0.007032881
2100.7,0.006908006,2100.7,0.005185777
2100.6,0.006232745,2100.6,0.005555558
2100.5,0.005161501,2100.5,0.002954963
2100.4,0.003645431,2100.4,0.002951523
2100.3,0.004767457,2100.3,0.005540357
2100.2,0.004711076,2100.2,0.005538011
2100.1,0.006320269,2100.1,0.006276242
2100.0,0.005942168,2100.0,0.003306933

sample1,,,
sample1,,,
Collection Time: 7/30/02 4:23:20 PM,,,
Operator Name  :,,,
Scan Software Version: 02.00(25),,,
Parameter List :,,,
Instrument                        Cary 500,,,
Instrument Version                500.05,,,
Start (nm)                        2180.000,,,
Stop (nm)                         2100.000,,,
X Mode                            Nanometers,,,
Y Mode                            %T,,,
UV-Vis Scan Rate (nm/min)         60.000
UV-Vis Data Interval (nm)         0.100
UV-Vis Ave. Time (sec)            0.100
UV-Vis SBW (nm)                   0.250
Slit Height                       Full
Beam Mode                         Double
Signal-to-noise Mode              Off
UV Source                         On
Vis Source                        On
Third Source                      Off
Source Changeover (nm)            350.00
Detector Changeover (nm)          880.00
Baseline Correction               On
Baseline Type                     Baseline correction
Baseline File Name
Baseline Std Ref File Name
Cycle Mode                        Off,
Comments,
Method Log     :,
Method Name    : C:\Varian\Cary WinUV\Methods\Test\Standard Scan.MSW,
Date/Time stamp: 6/6/02 6:45:38 AM,
Method Modifications: None,
<SBW (nm)> ,8.52
<Energy> ,3
<Slit height> , Full
<Current Wavelength> ,2099.9

sample2,
sample2,
Collection Time: 7/30/02 4:31:29 PM,
Operator Name  :,
Scan Software Version: 02.00(25),
Parameter List :
Instrument                        Cary 500
Instrument Version                500.05
Start (nm)                        2180.000
Stop (nm)                         2100.000
X Mode                            Nanometers
Y Mode                            %T
UV-Vis Scan Rate (nm/min)         60.000
UV-Vis Data Interval (nm)         0.100
UV-Vis Ave. Time (sec)            0.100
UV-Vis SBW (nm)                   0.250
Slit Height                       Full
Beam Mode                         Double
Signal-to-noise Mode              Off
UV Source                         On
Vis Source                        On
Third Source                      Off,
Source Changeover (nm)            350.00,
Detector Changeover (nm)          880.00,
Baseline Correction               On,
Baseline Type                     Baseline correction,
Baseline File Name,
Baseline Std Ref File Name,
Cycle Mode                        Off,
Comments,
Method Log     :,
Method Name    : C:\Varian\Cary WinUV\Methods\Test\Standard Scan.MSW,
Date/Time stamp: 6/6/02 6:45:38 AM,
Method Modifications: None,
<SBW (nm)> ,8.52
<Energy> ,3
<Slit height> , Full
<Current Wavelength> ,2099.9
