sample1,,sample2,,
Wavelength (nm),%T,Wavelength (nm),%T,
2180,0.0004074642202,2180,0.007082401309,
2179.899902,0.00434572855,2179.899902,0.007476542611,
2179.800049,0.007336503826,2179.800049,0.007331933826,
2179.699951,0.004363181069,2179.699951,0.009066663682,
2179.600098,0.00313204038,2179.600098,0.006648009177,
2179.5,0.008572836407,2179.5,0.006629662123,
2179.399902,0.006289306562,2179.399902,0.007071656641,
2179.300049,0.004639019258,2179.300049,0.006690702867,
2179.199951,0.005109850317,2179.199951,0.004682641476,
2179.100098,0.007762169931,2179.100098,0.01164560951,
2179,0.008643813431,2179,0.006682483945,
2178.899902,0.007354627363,2178.899902,0.01162078232,
2178.800049,0.00939560961,2178.800049,0.005900765304,
2178.699951,0.007314693183,2178.699951,0.01001613028,
2178.600098,0.004286524374,2178.600098,0.005076329224,
2178.5,0.008934815414,2178.5,0.01025676355,
2178.399902,0.005693074316,2178.399902,0.01343605854,
2178.300049,0.006489300635,2178.300049,0.005406300537,
2178.199951,0.003364365082,2178.199951,0.0106423581,
2178.100098,0.00664163474,2178.100098,0.008512286469,
2178,0.004516926128,2178,0.008728184737,
2177.899902,0.004473781679,2177.899902,0.01011983026,
2177.800049,0.005786778405,2177.800049,0.01218358427,
2177.699951,0.005538615864,2177.699951,0.009413695894,
2177.600098,0.01154132374,2177.600098,0.009688101709,
2177.5,0.004898947198,2177.5,0.006275237072,
2177.399902,0.008090534247,2177.399902,0.01220359653,
2177.300049,0.005944142118,2177.300049,0.0105322171,
2177.199951,0.008604348637,2177.199951,0.01104165055,
2177.100098,0.006414343603,2177.100098,0.00873282738,
2177,0.006880327594,2177,0.01030894183,
2176.899902,0.011086802,2176.899902,0.01181616075,
2176.800049,0.009434293956,2176.800049,0.0141611537,
2176.699951,0.00714850612,2176.699951,0.01281308942,
2176.600098,0.01106346864,2176.600098,0.006097207312,
2176.5,0.01171219908,2176.5,0.01360732596,
2176.399902,0.007999011315,2176.399902,0.01369644143,
2176.300049,0.01331301033,2176.300049,0.006871422287,
2176.199951,0.007138837129,2176.199951,0.01108971518,
2176.100098,0.006110257003,2176.100098,0.008307767101,
2176,0.008305053227,2176,0.005333565641,
2175.899902,0.008362961933,2175.899902,0.01137419324,
2175.800049,0.01216236036,2175.800049,0.01024548523,
2175.699951,0.009124034084,2175.699951,0.01061904151,
2175.600098,0.01092278399,2175.600098,0.01732718572,
2175.5,0.01211202983,2175.5,0.01172496472,
2175.399902,0.007210343145,2175.399902,0.009851550683,
2175.300049,0.01249542367,2175.300049,0.009476408362,
2175.199951,0.01137004141,2175.199951,0.01213005558,
2175.100098,0.01062230207,2175.100098,0.01326705981,
2175,0.01024921518,2175,0.0131659722,
2174.899902,0.01197782345,2174.899902,0.01089509856,
2174.800049,0.007926382124,2174.800049,0.01061743777,
2174.699951,0.01399003062,2174.699951,0.01211982127,
2174.600098,0.0138794817,2174.600098,0.01053403504,
2174.5,0.01056467183,2174.5,0.0143020777,
2174.399902,0.0120748831,2174.399902,0.01695803367,
2174.300049,0.00905231107,2174.300049,0.0143233994,
2174.199951,0.009819732979,2174.199951,0.0128277652,
2174.100098,0.01321662869,2174.100098,0.01320863049,
2174,0.01472732797,2174,0.01169884019,
2173.899902,0.01170978975,2173.899902,0.01359510329,
2173.800049,0.01097001601,2173.800049,0.01020736992,
2173.699951,0.01737174019,2173.699951,0.01208230387,
2173.600098,0.01811412722,2173.600098,0.01132589485,
2173.5,0.01624744013,2173.5,0.01472927257,
2173.399902,0.0139846392,2173.399902,0.01397348847,
2173.300049,0.01398370042,2173.300049,0.01698390767,
2173.199951,0.01472531166,2173.199951,0.01697967947,
2173.100098,0.01397519931,2173.100098,0.01624166965,
2173,0.01774120331,2173,0.01509025786,
2172.899902,0.01360839047,2172.899902,0.01657854579,
2172.800049,0.01199079398,2172.800049,0.01715938933,
2172.699951,0.01721327007,2172.699951,0.01317723934,
2172.600098,0.01358123869,2172.600098,0.01658857428,
2172.5,0.01094683073,2172.5,0.01808046736,
2172.399902,0.01246011816,2172.399902,0.01394728478,
2172.300049,0.01583480649,2172.300049,0.01959353313,
2172.199951,0.01845795847,2172.199951,0.01769362018,
2172.100098,0.02034427971,2172.100098,0.0207098294,
2172,0.01432364341,2172,0.01844208874,
2171.899902,0.01771098934,2171.899902,0.01807042398,
2171.800049,0.01583374478,2171.800049,0.02034680359,
2171.699951,0.01544374507,2171.699951,0.01995442808,
2171.600098,0.01619667746,2171.600098,0.01880911551,
2171.5,0.01696701534,2171.5,0.01882739179,
2171.399902,0.01769444719,2171.399902,0.02107330598,
2171.300049,0.01619589143,2171.300049,0.02295698971,
2171.199951,0.01506024599,2171.199951,0.0206873659,
2171.100098,0.01805257797,2171.100098,0.02519082651,
2171,0.01581176557,2171,0.01956045814,
2170.899902,0.02331881039,2170.899902,0.02601920627,
2170.800049,0.01954028197,2170.800049,0.02474577725,
2170.699951,0.01954721287,2170.699951,0.02255997807,
2170.600098,0.02179834992,2170.600098,0.02066545375,
2170.5,0.02110521682,2170.5,0.02710586414,
2170.399902,0.02247627825,2170.399902,0.02736321837,
2170.300049,0.02217447013,2170.300049,0.02553705685,
2170.199951,0.02064244263,2170.199951,0.0267553702,
2170.100098,0.02253656648,2170.100098,0.02733593248,
2170,0.02404745854,2170,0.02627875656,
2169.899902,0.02292634733,2169.899902,0.0305419825,
2169.800049,0.02830027044,2169.800049,0.02565531805,
2169.699951,0.02208189107,2169.699951,0.02545534819,
2169.600098,0.02443860285,2169.600098,0.03005934507,
2169.5,0.02818381973,2169.5,0.03351226822,
2169.399902,0.03055193275,2169.399902,0.02940193191,
2169.300049,0.03053915314,2169.300049,0.0305275321,
2169.199951,0.02826778591,2169.199951,0.02864907123,
2169.100098,0.02829453349,2169.100098,0.03164730966,
2169,0.02825991623,2169,0.03651959449,
2168.899902,0.02488275617,2168.899902,0.03052448481,
2168.800049,0.03014940023,2168.800049,0.0338967368,
2168.699951,0.02862119861,2168.699951,0.03725755587,
2168.600098,0.02938276716,2168.600098,0.03540115431,
2168.5,0.03499620408,2168.5,0.03761863708,
2168.399902,0.0301131662,2168.399902,0.03801032156,
2168.300049,0.03424919397,2168.300049,0.03840594739,
2168.199951,0.03426073864,2168.199951,0.03915370256,
2168.100098,0.03460565582,2168.100098,0.0368626751,
2168,0.03425411507,2168,0.04214334115,
2167.899902,0.03799392655,2167.899902,0.03609329462,
2167.800049,0.03687909618,2167.800049,0.04288421571,
2167.699951,0.03724523261,2167.699951,0.04252276197,
2167.600098,0.04246345162,2167.600098,0.0484681353,
2167.5,0.04513406754,2167.5,0.04398266226,
2167.399902,0.04248286411,2167.399902,0.04713603482,
2167.300049,0.04205546156,2167.300049,0.04914500192,
2167.199951,0.03948330879,2167.199951,0.04964506999,
2167.100098,0.04811795801,2167.100098,0.0503308624,
2167,0.05034863576,2167,0.05259319022,
2166.899902,0.04733813554,2166.899902,0.05297959596,
2166.800049,0.05033084378,2166.800049,0.0514831394,
2166.699951,0.05119841173,2166.699951,0.05559361354,
2166.600098,0.05556964874,2166.600098,0.05745919049,
2166.5,0.05330367014,2166.5,0.05934517831,
2166.399902,0.05387814716,2166.399902,0.05962029099,
2166.300049,0.05179382116,2166.300049,0.06215827912,
2166.199951,0.05514410883,2166.199951,0.06066080928,
2166.100098,0.06089815125,2166.100098,0.06519280374,
2166,0.05805839226,2166,0.06442320347,
2165.899902,0.05848328769,2165.899902,0.0640783757,
2165.800049,0.06307704747,2165.800049,0.06408065557,
2165.699951,0.06400784105,2165.699951,0.06664264202,
2165.600098,0.06853277236,2165.600098,0.07268620282,
2165.5,0.06786002964,2165.5,0.0720031485,
2165.399902,0.06587964296,2165.399902,0.07342271507,
2165.300049,0.07268644124,2165.300049,0.07602965832,
2165.199951,0.07344312221,2165.199951,0.07489623129,
2165.100098,0.076013349,2165.100098,0.08279676735,
2165,0.07986494154,2165,0.08280963451,
2164.899902,0.08131937683,2164.899902,0.08845312148,
2164.800049,0.08279970288,2164.800049,0.08802558482,
2164.699951,0.08347389847,2164.699951,0.08942078799,
2164.600098,0.08201942593,2164.600098,0.09477020055,
2164.5,0.09068217129,2164.5,0.09515678883,
2164.399902,0.09250099212,2164.399902,0.09244524688,
2164.300049,0.0939406082,2164.300049,0.1010811925,
2164.199951,0.1007432714,2164.199951,0.1014843211,
2164.100098,0.1007221863,2164.100098,0.1029156372,
2164,0.1070902795,2164,0.1074176431,
2163.899902,0.1063498333,2163.899902,0.1108623371,
2163.800049,0.1081879139,2163.800049,0.1152947322,
2163.699951,0.1110866889,2163.699951,0.115239203,
2163.600098,0.1168737635,2163.600098,0.1183145195,
2163.5,0.1216674373,2163.5,0.1248135716,
2163.399902,0.1250145435,2163.399902,0.1294984221,
2163.300049,0.1259480417,2163.300049,0.1291070879,
2163.199951,0.1327677369,2163.199951,0.1329257935,
2163.100098,0.136661455,2163.100098,0.1364783645,
2163,0.13998276,2163,0.1413457841,
2162.899902,0.1411037594,2162.899902,0.1451210529,
2162.800049,0.1472603977,2162.800049,0.151135847,
2162.699951,0.1527293622,2162.699951,0.161351651,
2162.600098,0.1612109542,2162.600098,0.1635623425,
2162.5,0.1626266688,2162.5,0.1663669199,
2162.399902,0.1690203846,2162.399902,0.1741401553,
2162.300049,0.1764528453,2162.300049,0.1772391796,
2162.199951,0.1821234971,2162.199951,0.1809709519,
2162.100098,0.1906335354,2162.100098,0.1879237294,
2162,0.1959901303,2162,0.1959481239,
2161.899902,0.2002824098,2161.899902,0.1989449114,
2161.800049,0.2088737041,2161.800049,0.2097356319,
2161.699951,0.217744261,2161.699951,0.2132005244,
2161.600098,0.2233664691,2161.600098,0.2210506052,
2161.5,0.230419606,2161.5,0.2303733081,
2161.399902,0.2407800704,2161.399902,0.2414746284,
2161.300049,0.2445854992,2161.300049,0.2441347092,
2161.199951,0.2552731931,2161.199951,0.2562837303,
2161.100098,0.2687883675,2161.100098,0.2622915506,
2161,0.2771436572,2161,0.267572403,
2160.899902,0.2871112525,2160.899902,0.2816722393,
2160.800049,0.2966285944,2160.800049,0.2918695211,
2160.699951,0.3071569502,2160.699951,0.2962502539,
2160.600098,0.3214703202,2160.600098,0.3192332983,
2160.5,0.3316627145,2160.5,0.3281164169,
2160.399902,0.3406627774,2160.399902,0.3338859975,
2160.300049,0.3564698994,2160.300049,0.3437725008,
2160.199951,0.368932128,2160.199951,0.3577263653,
2160.100098,0.3911103606,2160.100098,0.3766274452,
2160,0.4032588899,2160,0.3917057514,
2159.899902,0.4141869545,2159.899902,0.4002814591,
2159.800049,0.4398647547,2159.800049,0.4158557355,
2159.699951,0.4565593004,2159.699951,0.4338157773,
2159.600098,0.478661418,2159.600098,0.4564922452,
2159.5,0.488337189,2159.5,0.4637264311,
2159.399902,0.5083510876,2159.399902,0.4814218283,
2159.300049,0.5319657922,2159.300049,0.4999352694,
2159.199951,0.5661885738,2159.199951,0.5249974132,
2159.100098,0.5788821578,2159.100098,0.549313724,
2159,0.6055175662,2159,0.5717048645,
2158.899902,0.6327241063,2158.899902,0.5857463479,
2158.800049,0.661663413,2158.800049,0.6183560491,
2158.699951,0.6847122908,2158.699951,0.64035815,
2158.600098,0.7188845873,2158.600098,0.6666477323,
2158.5,0.745555222,2158.5,0.6919685006,
2158.399902,0.779543519,2158.399902,0.728724122,
2158.300049,0.8379682899,2158.300049,0.7642250061,
2158.199951,0.8651008606,2158.199951,0.7964128852,
2158.100098,0.9049081206,2158.100098,0.8379908204,
2158,0.9466257691,2158,0.8638647199,
2157.899902,0.9961366653,2157.899902,0.9101329446,
2157.800049,1.031934381,2157.800049,0.9449679255,
2157.699951,1.071722865,2157.699951,0.9861219525,
2157.600098,1.11903429,2157.600098,1.012937307,
2157.5,1.19365108,2157.5,1.083127737,
2157.399902,1.254436493,2157.399902,1.129636765,
2157.300049,1.296297789,2157.300049,1.176917553,
2157.199951,1.382333636,2157.199951,1.246940613,
2157.100098,1.451456904,2157.100098,1.29414618,
2157,1.524436712,2157,1.366565347,
2156.899902,1.576031566,2156.899902,1.421384335,
2156.800049,1.675971746,2156.800049,1.501113176,
2156.699951,1.749243379,2156.699951,1.565274835,
2156.600098,1.863654137,2156.600098,1.678410888,
2156.5,1.955221176,2156.5,1.737400889,
2156.399902,2.069723606,2156.399902,1.846532583,
2156.300049,2.159256935,2156.300049,1.926684618,
2156.199951,2.288487196,2156.199951,2.047198534,
2156.100098,2.36215353,2156.100098,2.121902943,
2156,2.450180292,2156,2.195539951,
2155.899902,2.604157925,2155.899902,2.338982105,
2155.800049,2.745934963,2155.800049,2.442735672,
2155.699951,2.884763002,2155.699951,2.615534544,
2155.600098,3.025647879,2155.600098,2.718516827,
2155.5,3.183800697,2155.5,2.860778332,
2155.399902,3.340173244,2155.399902,3.017519712,
2155.300049,3.563862562,2155.300049,3.208152294,
2155.199951,3.688013554,2155.199951,3.342000008,
2155.100098,3.849654198,2155.100098,3.493962526,
2155,4.084518909,2155,3.696341038,
2154.899902,4.32998085,2154.899902,3.93639946,
2154.800049,4.499409676,2154.800049,4.141382694,
2154.699951,4.73614502,2154.699951,4.292016983,
2154.600098,4.978340626,2154.600098,4.530008316,
2154.5,5.185509682,2154.5,4.808479309,
2154.399902,5.409061909,2154.399902,5.017799377,
2154.300049,5.620389938,2154.300049,5.154391766,
2154.199951,5.91769886,2154.199951,5.417891026,
2154.100098,6.130261421,2154.100098,5.750815868,
2154,6.485667706,2154,6.012609482,
2153.899902,6.729540348,2153.899902,6.290870667,
2153.800049,7.04613924,2153.800049,6.60681963,
2153.699951,7.318405628,2153.699951,6.874582291,
2153.600098,7.731285572,2153.600098,7.325191975,
2153.5,7.945536137,2153.5,7.475152016,
2153.399902,8.244235039,2153.399902,7.853806973,
2153.300049,8.684488297,2153.300049,8.159925461,
2153.199951,8.993094444,2153.199951,8.648975372,
2153.100098,9.457005501,2153.100098,8.989742279,
2153,9.804665565,2153,9.302178383,
2152.899902,10.20420265,2152.899902,9.889460564,
2152.800049,10.64788723,2152.800049,10.15564156,
2152.699951,10.97677898,2152.699951,10.59844875,
2152.600098,11.25293255,2152.600098,10.92293262,
2152.5,11.76601696,2152.5,11.29963112,
2152.399902,12.00721741,2152.399902,11.61694145,
2152.300049,12.68591881,2152.300049,12.30310631,
2152.199951,13.0975914,2152.199951,12.75833893,
2152.100098,13.41378117,2152.100098,13.05120564,
2152,13.90191936,2152,13.55270576,
2151.899902,14.53958607,2151.899902,14.26477909,
2151.800049,14.93793106,2151.800049,14.59661388,
2151.699951,15.25899792,2151.699951,14.93535233,
2151.600098,15.74822807,2151.600098,15.48654556,
2151.5,16.40253639,2151.5,16.20472145,
2151.399902,17.06255531,2151.399902,16.84646225,
2151.300049,17.44814873,2151.300049,17.20369339,
2151.199951,18.02547646,2151.199951,17.82875443,
2151.100098,18.58624458,2151.100098,18.42142105,
2151,19.16666412,2151,18.98051643,
2150.899902,19.56958389,2150.899902,19.37505531,
2150.800049,20.0414505,2150.800049,19.90276337,
2150.699951,20.59252739,2150.699951,20.47974205,
2150.600098,21.41274834,2150.600098,21.23418236,
2150.5,21.90013885,2150.5,21.8405304,
2150.399902,22.36351395,2150.399902,22.30309296,
2150.300049,23.17869949,2150.300049,23.19354057,
2150.199951,23.84802818,2150.199951,23.79133797,
2150.100098,24.28781509,2150.100098,24.34655571,
2150,24.81081009,2150,24.85260963,
2149.899902,25.56604767,2149.899902,25.61638069,
2149.800049,26.1279335,2149.800049,26.19306755,
2149.699951,26.93823051,2149.699951,26.99283028,
2149.600098,27.47177124,2149.600098,27.64392281,
2149.5,28.24727631,2149.5,28.4099884,
2149.399902,28.82701492,2149.399902,28.99054909,
2149.300049,29.49630356,2149.300049,29.72198486,
2149.199951,30.07971382,2149.199951,30.21598816,
2149.100098,30.71421432,2149.100098,30.92243576,
2149,31.37446022,2149,31.5962944,
2148.899902,32.03499222,2148.899902,32.26141739,
2148.800049,32.86826706,2148.800049,33.10431671,
2148.699951,33.49065781,2148.699951,33.80051804,
2148.600098,34.26916122,2148.600098,34.60966492,
2148.5,34.86680222,2148.5,35.20713043,
2148.399902,35.62623215,2148.399902,36.05319595,
2148.300049,36.28731537,2148.300049,36.74385452,
2148.199951,36.93603516,2148.199951,37.3669014,
2148.100098,37.5398941,2148.100098,37.92356873,
2148,38.61545944,2148,38.9911232,
2147.899902,39.22624969,2147.899902,39.75772858,
2147.800049,39.91868973,2147.800049,40.47980499,
2147.699951,40.54610825,2147.699951,41.21094131,
2147.600098,41.38828278,2147.600098,42.08017731,
2147.5,42.15071106,2147.5,42.74533463,
2147.399902,42.67541122,2147.399902,43.30331039,
2147.300049,43.39510727,2147.300049,44.0560379,
2147.199951,44.02732849,2147.199951,44.68054581,
2147.100098,44.92843628,2147.100098,45.59436417,
2147,45.4717598,2147,46.30528641,
2146.899902,46.33166885,2146.899902,47.12141037,
2146.800049,46.97266388,2146.800049,47.76656342,
2146.699951,47.75445175,2146.699951,48.5588913,
2146.600098,48.44440842,2146.600098,49.25410461,
2146.5,48.9958992,2146.5,49.88116455,
2146.399902,49.55065155,2146.399902,50.40579987,
2146.300049,50.46493912,2146.300049,51.34287643,
2146.199951,51.21456909,2146.199951,52.26680756,
2146.100098,51.7956543,2146.100098,52.75579071,
2146,52.515625,2146,53.55823517,
2145.899902,53.08911896,2145.899902,54.21524048,
2145.800049,53.84647751,2145.800049,54.91422272,
2145.699951,54.37724686,2145.699951,55.50083923,
2145.600098,54.92337799,2145.600098,56.14647675,
2145.5,55.40884018,2145.5,56.5953331,
2145.399902,56.25494766,2145.399902,57.51520538,
2145.300049,56.88951111,2145.300049,58.12386322,
2145.199951,57.53562546,2145.199951,58.8026123,
2145.100098,58.11413574,2145.100098,59.46807861,
2145,58.67804718,2145,60.0984993,
2144.899902,59.3604393,2144.899902,60.73256302,
2144.800049,59.8483429,2144.800049,61.20023727,
2144.699951,60.26452637,2144.699951,61.72930527,
2144.600098,60.85453796,2144.600098,62.38918304,
2144.5,61.69062805,2144.5,63.06907654,
2144.399902,62.1748085,2144.399902,63.69215775,
2144.300049,62.67035675,2144.300049,64.23082733,
2144.199951,63.1237793,2144.199951,64.713974,
2144.100098,63.76469803,2144.100098,65.29201508,
2144,64.14657593,2144,65.77862549,
2143.899902,64.54621887,2143.899902,66.2171936,
2143.800049,64.94817352,2143.800049,66.59127808,
2143.699951,65.74539185,2143.699951,67.2999115,
2143.600098,66.08432007,2143.600098,67.82944489,
2143.5,66.47245789,2143.5,68.18852234,
2143.399902,66.8928299,2143.399902,68.70149994,
2143.300049,67.47205353,2143.300049,69.18076324,
2143.199951,67.81826782,2143.199951,69.74156189,
2143.100098,68.23081207,2143.100098,69.9324646,
2143,68.62211609,2143,70.38539886,
2142.899902,68.95184326,2142.899902,71.059021,
2142.800049,69.48670959,2142.800049,71.57896423,
2142.699951,69.97746277,2142.699951,71.76686096,
2142.600098,70.28466034,2142.600098,72.147789,
2142.5,70.56093597,2142.5,72.80368805,
2142.399902,70.99784088,2142.399902,73.22633362,
2142.300049,71.33295441,2142.300049,73.2408371,
2142.199951,71.71769714,2142.199951,73.71517181,
2142.100098,71.88569641,2142.100098,74.13451385,
2142,72.26141357,2142,74.46646118,
2141.899902,72.69615173,2141.899902,74.80110168,
2141.800049,72.91021729,2141.800049,74.77104187,
2141.699951,73.13653564,2141.699951,75.59008026,
2141.600098,73.44868469,2141.600098,75.78504181,
2141.5,73.82949066,2141.5,75.92113495,
2141.399902,74.08211517,2141.399902,76.29035187,
2141.300049,74.2233963,2141.300049,76.67430115,
2141.199951,74.45107269,2141.199951,76.80014801,
2141.100098,74.85897827,2141.100098,77.06376648,
2141,75.07592773,2141,77.46681213,
2140.899902,75.20477295,2140.899902,77.71207428,
2140.800049,75.48053741,2140.800049,77.94714355,
2140.699951,75.6989212,2140.699951,78.04878998,
2140.600098,75.86779022,2140.600098,78.24138641,
2140.5,75.89675903,2140.5,78.50724792,
2140.399902,76.07900238,2140.399902,78.69591522,
2140.300049,76.27332306,2140.300049,78.68225861,
2140.199951,76.36488342,2140.199951,78.92454529,
2140.100098,76.55393982,2140.100098,79.22406006,
2140,76.64507294,2140,79.35652161,
2139.899902,76.71412659,2139.899902,79.26713562,
2139.800049,76.84977722,2139.800049,79.4115448,
2139.699951,76.94206238,2139.699951,79.63587952,
2139.600098,76.94793701,2139.600098,79.74421692,
2139.5,76.97954559,2139.5,79.58242035,
2139.399902,77.10057068,2139.399902,79.78495026,
2139.300049,77.06609344,2139.300049,79.87870789,
2139.199951,77.09915924,2139.199951,79.94708252,
2139.100098,77.1373291,2139.100098,79.8942337,
2139,77.07376099,2139,79.85058594,
2138.899902,77.02236176,2138.899902,79.92848206,
2138.800049,77.05200195,2138.800049,79.99924469,
2138.699951,77.01383209,2138.699951,79.80338287,
2138.600098,76.91392517,2138.600098,79.82887268,
2138.5,76.81109619,2138.5,79.84341431,
2138.399902,76.88742065,2138.399902,79.75187683,
2138.300049,76.69217682,2138.300049,79.51023102,
2138.199951,76.52622223,2138.199951,79.61009979,
2138.100098,76.37757874,2138.100098,79.3860321,
2138,76.28900909,2138,79.13051605,
2137.899902,76.06471252,2137.899902,79.18136597,
2137.800049,75.99292755,2137.800049,79.05020142,
2137.699951,75.86063385,2137.699951,78.87359619,
2137.600098,75.57584381,2137.600098,78.5689621,
2137.5,75.3393631,2137.5,78.34300232,
2137.399902,75.12531281,2137.399902,78.15996552,
2137.300049,74.99668884,2137.300049,78.0952301,
2137.199951,74.70475769,2137.199951,77.77855682,
2137.100098,74.49295807,2137.100098,77.50049591,
2137,74.30599213,2137,77.47730255,
2136.899902,74.07043457,2136.899902,77.06301117,
2136.800049,73.75218201,2136.800049,76.76398468,
2136.699951,73.46945953,2136.699951,76.63638306,
2136.600098,73.16796112,2136.600098,76.09426117,
2136.5,72.87757874,2136.5,76.02262878,
2136.399902,72.54938507,2136.399902,75.73845673,
2136.300049,72.19108582,2136.300049,75.35549164,
2136.199951,71.89348602,2136.199951,75.11911011,
2136.100098,71.56295013,2136.100098,74.73065186,
2136,71.3177948,2136,74.47019958,
2135.899902,70.78926849,2135.899902,73.99071503,
2135.800049,70.32360077,2135.800049,73.46883392,
2135.699951,70.01902771,2135.699951,73.15826416,
2135.600098,69.63209534,2135.600098,72.79220581,
2135.5,69.20941162,2135.5,72.26473236,
2135.399902,68.751297,2135.399902,71.88657379,
2135.300049,68.42657471,2135.300049,71.56512451,
2135.199951,67.97829437,2135.199951,71.09204865,
2135.100098,67.64860535,2135.100098,70.69365692,
2135,67.06772614,2135,70.14555359,
2134.899902,66.56263733,2134.899902,69.63845825,
2134.800049,66.00785065,2134.800049,69.08614349,
2134.699951,65.73571777,2134.699951,68.78873444,
2134.600098,65.21031189,2134.600098,68.15480042,
2134.5,64.60422516,2134.5,67.6943512,
2134.399902,64.21657562,2134.399902,67.15151978,
2134.300049,63.80976486,2134.300049,66.76852417,
2134.199951,62.96038055,2134.199951,65.94127655,
2134.100098,62.49697113,2134.100098,65.38487244,
2134,61.81174088,2134,64.84291077,
2133.899902,61.2722168,2133.899902,64.22277832,
2133.800049,60.91046143,2133.800049,63.62627029,
2133.699951,60.26028824,2133.699951,63.06661987,
2133.600098,59.67266083,2133.600098,62.52045441,
2133.5,59.20428467,2133.5,62.02380753,
2133.399902,58.59029388,2133.399902,61.40868759,
2133.300049,57.78132248,2133.300049,60.60934067,
2133.199951,57.31581879,2133.199951,60.05919647,
2133.100098,56.61791992,2133.100098,59.35767365,
2133,55.98543167,2133,58.63584137,
2132.899902,55.23815155,2132.899902,57.91964722,
2132.800049,54.69803619,2132.800049,57.29455185,
2132.699951,54.11677551,2132.699951,56.69803619,
2132.600098,53.43842316,2132.600098,56.0599556,
2132.5,52.72366333,2132.5,55.2101593,
2132.399902,51.82619095,2132.399902,54.21435165,
2132.300049,51.14913559,2132.300049,53.71322632,
2132.199951,50.4448967,2132.199951,52.81925964,
2132.100098,49.7876358,2132.100098,52.15690613,
2132,48.94124222,2132,51.32806778,
2131.899902,48.41088486,2131.899902,50.72140121,
2131.800049,47.76015854,2131.800049,50.07730865,
2131.699951,47.07621765,2131.699951,49.3392334,
2131.600098,46.1149826,2131.600098,48.51459122,
2131.5,45.46798325,2131.5,47.68388748,
2131.399902,44.75338364,2131.399902,46.91441727,
2131.300049,43.9268074,2131.300049,46.11893845,
2131.199951,43.25286865,2131.199951,45.40590668,
2131.100098,42.5918808,2131.100098,44.63561249,
2131,41.88555908,2131,44.00144958,
2130.899902,41.15116882,2130.899902,43.25610733,
2130.800049,40.42405319,2130.800049,42.49198914,
2130.699951,39.29676056,2130.699951,41.47148514,
2130.600098,38.68286133,2130.600098,40.6595726,
2130.5,37.90470505,2130.5,39.77810287,
2130.399902,37.27771378,2130.399902,39.2042923,
2130.300049,36.40856934,2130.300049,38.22134399,
2130.199951,35.73575974,2130.199951,37.52541351,
2130.100098,35.17118835,2130.100098,36.96918869,
2130,34.48830032,2130,36.24614334,
2129.899902,33.61349869,2129.899902,35.32821655,
2129.800049,32.92695999,2129.800049,34.54510117,
2129.699951,32.19155884,2129.699951,33.75643921,
2129.600098,31.41227722,2129.600098,32.93071747,
2129.5,30.81742859,2129.5,32.35348129,
2129.399902,30.13932037,2129.399902,31.53806877,
2129.300049,29.43733978,2129.300049,30.87859535,
2129.199951,28.88868141,2129.199951,30.26893997,
2129.100098,28.1756916,2129.100098,29.54307556,
2129,27.28034019,2129,28.55805779,
2128.899902,26.66612053,2128.899902,27.85854721,
2128.800049,25.97033691,2128.800049,27.22675133,
2128.699951,25.3500576,2128.699951,26.55493927,
2128.600098,24.62517929,2128.600098,25.84494019,
2128.5,24.00216866,2128.5,25.2031002,
2128.399902,23.58457375,2128.399902,24.65645981,
2128.300049,22.87441063,2128.300049,23.9736557,
2128.199951,22.36134148,2128.199951,23.3894825,
2128.100098,21.60873032,2128.100098,22.60775185,
2128,21.00060844,2128,22.02013397,
2127.899902,20.32475853,2127.899902,21.28592491,
2127.800049,19.86083984,2127.800049,20.80190659,
2127.699951,19.16468811,2127.699951,20.09834671,
2127.600098,18.73435593,2127.600098,19.55326271,
2127.5,18.27305984,2127.5,19.06333351,
2127.399902,17.64430046,2127.399902,18.48835564,
2127.300049,17.00649643,2127.300049,17.7134285,
2127.199951,16.4949646,2127.199951,17.24174118,
2127.100098,15.93815994,2127.100098,16.63487244,
2127,15.39950943,2127,16.08939934,
2126.899902,14.97804642,2126.899902,15.57667732,
2126.800049,14.40705967,2126.800049,15.03868675,
2126.699951,14.00438118,2126.699951,14.63243675,
2126.600098,13.55313206,2126.600098,14.14772224,
2126.5,13.15398979,2126.5,13.70725918,
2126.399902,12.59901333,2126.399902,13.14933872,
2126.300049,12.15454006,2126.300049,12.67129135,
2126.199951,11.7262125,2126.199951,12.21130085,
2126.100098,11.29729176,2126.100098,11.76268482,
2126,10.85976696,2126,11.3297205,
2125.899902,10.49049377,2125.899902,10.90325451,
2125.800049,10.18164635,2125.800049,10.60106277,
2125.699951,9.765758514,2125.699951,10.13955975,
2125.600098,9.365439415,2125.600098,9.691156387,
2125.5,8.864330292,2125.5,9.227243423,
2125.399902,8.524084091,2125.399902,8.846921921,
2125.300049,8.141281128,2125.300049,8.452537537,
2125.199951,7.915116787,2125.199951,8.173920631,
2125.100098,7.47749567,2125.100098,7.780749321,
2125,7.172273636,2125,7.469425201,
2124.899902,6.936672211,2124.899902,7.19641161,
2124.800049,6.662984848,2124.800049,6.941304207,
2124.699951,6.321289539,2124.699951,6.587203026,
2124.600098,6.045064926,2124.600098,6.27355814,
2124.5,5.744214535,2124.5,5.955404282,
2124.399902,5.493293762,2124.399902,5.717566013,
2124.300049,5.224422455,2124.300049,5.450004578,
2124.199951,4.989151478,2124.199951,5.204131603,
2124.100098,4.788163185,2124.100098,4.988302708,
2124,4.574546337,2124,4.752224922,
2123.899902,4.323338509,2123.899902,4.504137039,
2123.800049,4.060676575,2123.800049,4.250276089,
2123.699951,3.851629019,2123.699951,4.015091419,
2123.600098,3.680087566,2123.600098,3.822777033,
2123.5,3.536194563,2123.5,3.659246922,
2123.399902,3.324667454,2123.399902,3.432681799,
2123.300049,3.148673773,2123.300049,3.266357183,
2123.199951,3.029690266,2123.199951,3.149365187,
2123.100098,2.86408186,2123.100098,2.993403673,
2123,2.748829365,2123,2.847757816,
2122.899902,2.574522257,2122.899902,2.689930677,
2122.800049,2.443961382,2122.800049,2.534184694,
2122.699951,2.302367687,2122.699951,2.396151304,
2122.600098,2.212836504,2122.600098,2.306127548,
2122.5,2.080554008,2122.5,2.165487766,
2122.399902,1.990692735,2122.399902,2.090722322,
2122.300049,1.884431958,2122.300049,1.970043778,
2122.199951,1.814916492,2122.199951,1.88140595,
2122.100098,1.687162519,2122.100098,1.747794867,
2122,1.60848403,2122,1.679924488,
2121.899902,1.532735705,2121.899902,1.589324355,
2121.800049,1.470566869,2121.800049,1.516296029,
2121.699951,1.372800827,2121.699951,1.42611897,
2121.600098,1.310653448,2121.600098,1.364085555,
2121.5,1.254484653,2121.5,1.302854776,
2121.399902,1.201292872,2121.399902,1.245222092,
2121.300049,1.14035809,2121.300049,1.190047622,
2121.199951,1.074595332,2121.199951,1.114952564,
2121.100098,1.026422858,2121.100098,1.061181307,
2121,0.9694175124,2121,1.004228592,
2120.899902,0.9340338707,2120.899902,0.9671423435,
2120.800049,0.8864026666,2120.800049,0.9132925272,
2120.699951,0.8471692204,2120.699951,0.8833591938,
2120.600098,0.8136860132,2120.600098,0.8489717841,
2120.5,0.7782505155,2120.5,0.8098782897,
2120.399902,0.7393150926,2120.399902,0.7635431886,
2120.300049,0.7007683516,2120.300049,0.7259187698,
2120.199951,0.6618748307,2120.199951,0.7002062798,
2120.100098,0.6418719292,2120.100098,0.6629040241,
2120,0.6147313714,2120,0.6298111677,
2119.899902,0.5770078897,2119.899902,0.605442822,
2119.800049,0.5635636449,2119.800049,0.581230402,
2119.699951,0.533561945,2119.699951,0.5560860634,
2119.600098,0.5205803514,2119.600098,0.5386621952,
2119.5,0.4927908182,2119.5,0.5083220601,
2119.399902,0.4729055464,2119.399902,0.4889782071,
2119.300049,0.4534912705,2119.300049,0.4657800794,
2119.199951,0.4442939162,2119.199951,0.4544181824,
2119.100098,0.4176571071,2119.100098,0.4296394587,
2119,0.4019263089,2119,0.4124853611,
2118.899902,0.3941140175,2118.899902,0.405348748,
2118.800049,0.3780044317,2118.800049,0.3808759451,
2118.699951,0.3580543697,2118.699951,0.3684281707,
2118.600098,0.3436390162,2118.600098,0.3474726975,
2118.5,0.3279726207,2118.5,0.3385273516,
2118.399902,0.3184480965,2118.399902,0.3223486245,
2118.300049,0.3065630496,2118.300049,0.3107165098,
2118.199951,0.2894144356,2118.199951,0.3000402749,
2118.100098,0.2814045548,2118.100098,0.2933981419,
2118,0.2730499208,2118,0.2778673172,
2117.899902,0.264999181,2117.899902,0.2707124352,
2117.800049,0.2511385679,2117.800049,0.2602320015,
2117.699951,0.245584622,2117.699951,0.248874113,
2117.600098,0.2330005169,2117.600098,0.2385112196,
2117.5,0.2272458076,2117.5,0.2352034003,
2117.399902,0.2150944471,2117.399902,0.2220367491,
2117.300049,0.2162976265,2117.300049,0.2147806138,
2117.199951,0.2032545358,2117.199951,0.2127253413,
2117.100098,0.1969634145,2117.100098,0.199630484,
2117,0.1944569349,2117,0.195545122,
2116.899902,0.1841671467,2116.899902,0.1810699403,
2116.800049,0.1778398007,2116.800049,0.1817551553,
2116.699951,0.1698241979,2116.699951,0.1747397035,
2116.600098,0.1657266468,2116.600098,0.1704693437,
2116.5,0.1622024477,2116.5,0.159883216,
2116.399902,0.1532916278,2116.399902,0.1546733975,
2116.300049,0.1549385637,2116.300049,0.1537103057,
2116.199951,0.1429752856,2116.199951,0.1495351195,
2116.100098,0.142884776,2116.100098,0.1439785063,
2116,0.1360205114,2116,0.1357971132,
2115.899902,0.1306171268,2115.899902,0.1331417263,
2115.800049,0.1270412654,2115.800049,0.1297057569,
2115.699951,0.1266257614,2115.699951,0.1289511025,
2115.600098,0.1194542423,2115.600098,0.1245095134,
2115.5,0.1130978093,2115.5,0.1204813495,
2115.399902,0.1116880476,2115.399902,0.11415831,
2115.300049,0.1133440211,2115.300049,0.1102256477,
2115.199951,0.1056720242,2115.199951,0.1039955765,
2115.100098,0.1029319689,2115.100098,0.1035652161,
2115,0.0995170325,2115,0.1027689278,
2114.899902,0.09917926788,2114.899902,0.1018745229,
2114.800049,0.09083867073,2114.800049,0.09589350969,
2114.699951,0.09270255268,2114.699951,0.0909325853,
2114.600098,0.09215927869,2114.600098,0.09205653518,
2114.5,0.0829346478,2114.5,0.088244766,
2114.399902,0.08679619431,2114.399902,0.08369408548,
2114.300049,0.07972238213,2114.300049,0.08282191306,
2114.199951,0.07722554356,2114.199951,0.07944262028,
2114.100098,0.07372630388,2114.100098,0.07579920441,
2114,0.07582803816,2114,0.07717243582,
2113.899902,0.07483657449,2113.899902,0.06921262294,
2113.800049,0.06711138785,2113.800049,0.06691432744,
2113.699951,0.06922781467,2113.699951,0.0670498237,
2113.600098,0.0699076578,2113.600098,0.06947059929,
2113.5,0.06773173064,2113.5,0.06518088281,
2113.399902,0.05961669981,2113.399902,0.06761828065,
2113.300049,0.05900242925,2113.300049,0.06261220574,
2113.199951,0.06148441508,2113.199951,0.05679133534,
2113.100098,0.05881454051,2113.100098,0.05420496315,
2113,0.05890114233,2113,0.06062788889,
2112.899902,0.05757982284,2112.899902,0.05770004913,
2112.800049,0.05379829556,2112.800049,0.05230911821,
2112.699951,0.05441858247,2112.699951,0.04982519895,
2112.600098,0.05053464696,2112.600098,0.05109829828,
2112.5,0.05080520734,2112.5,0.05324363708,
2112.399902,0.04794579744,2112.399902,0.04452381283,
2112.300049,0.04125734419,2112.300049,0.05017720535,
2112.199951,0.04834145308,2112.199951,0.04931792617,
2112.100098,0.04586869478,2112.100098,0.0432459414,
2112,0.04392164573,2112,0.04866466299,
2111.899902,0.04851131886,2111.899902,0.04181955382,
2111.800049,0.04194623604,2111.800049,0.03795129433,
2111.699951,0.04141840711,2111.699951,0.03992658481,
2111.600098,0.03660895303,2111.600098,0.0393447578,
2111.5,0.03944918513,2111.5,0.04217334464,
2111.399902,0.03770680353,2111.399902,0.03501753509,
2111.300049,0.03628359735,2111.300049,0.03438868374,
2111.199951,0.0406688489,2111.199951,0.03717702255,
2111.100098,0.03431984037,2111.100098,0.03960513696,
2111,0.03254467249,2111,0.03728868812,
2110.899902,0.03294561058,2110.899902,0.03550764546,
2110.800049,0.03254938498,2110.800049,0.03605623171,
2110.699951,0.03174940869,2110.699951,0.03118550591,
2110.600098,0.03325100616,2110.600098,0.03248801827,
2110.5,0.02891320363,2110.5,0.02325328253,
2110.399902,0.02848983929,2110.399902,0.03123390116,
2110.300049,0.02523702197,2110.300049,0.02896541357,
2110.199951,0.02676834166,2110.199951,0.02625218406,
2110.100098,0.02908871323,2110.100098,0.02882203832,
2110,0.02859265916,2110,0.02711149491,
2109.899902,0.02611432225,2109.899902,0.02640123107,
2109.800049,0.02959541231,2109.800049,0.02473830618,
2109.699951,0.02912786976,2109.699951,0.02434383519,
2109.600098,0.02679793909,2109.600098,0.02748226374,
2109.5,0.02277332917,2109.5,0.0256540142,
2109.399902,0.02255535312,2109.399902,0.02660856955,
2109.300049,0.0247429274,2109.300049,0.02435884252,
2109.199951,0.02348775789,2109.199951,0.02039276622,
2109.100098,0.02130392753,2109.100098,0.02422547154,
2109,0.02368816175,2109,0.02257735282,
2108.899902,0.01998979226,2108.899902,0.02454658598,
2108.800049,0.02132769488,2108.800049,0.0194991976,
2108.699951,0.02726931684,2108.699951,0.01871804707,
2108.600098,0.01399569865,2108.600098,0.02308812179,
2108.5,0.02035266161,2108.5,0.0197072681,
2108.399902,0.01911423169,2108.399902,0.02211714536,
2108.300049,0.02244267613,2108.300049,0.02070442401,
2108.199951,0.02107062377,2108.199951,0.01873114519,
2108.100098,0.02256040834,2108.100098,0.01714494638,
2108,0.01949512959,2108,0.01765017584,
2107.899902,0.02093476988,2107.899902,0.01997012459,
2107.800049,0.01846697927,2107.800049,0.02055533789,
2107.699951,0.01707707904,2107.699951,0.01713226177,
2107.600098,0.01732194424,2107.600098,0.01431275439,
2107.5,0.01536636427,2107.5,0.01814845949,
2107.399902,0.01625969075,2107.399902,0.01468760706,
2107.300049,0.01820213348,2107.300049,0.01265339553,
2107.199951,0.01735691726,2107.199951,0.01617367193,
2107.100098,0.01426078845,2107.100098,0.0141426567,
2107,0.0144126825,2107,0.02133078873,
2106.899902,0.01126740966,2106.899902,0.0141556561,
2106.800049,0.01587864757,2106.800049,0.01433245093,
2106.699951,0.01642257348,2106.699951,0.01414890587,
2106.600098,0.01662975922,2106.600098,0.01621668413,
2106.5,0.01459787879,2106.5,0.01529192273,
2106.399902,0.01512546558,2106.399902,0.009839896113,
2106.300049,0.01252866164,2106.300049,0.01457075588,
2106.199951,0.009084525518,2106.199951,0.01215772238,
2106.100098,0.01429767907,2106.100098,0.01185866352,
2106,0.01626243442,2106,0.01506226696,
2105.899902,0.01202234346,2105.899902,0.01420478523,
2105.800049,0.01294338144,2105.800049,0.009568359703,
2105.699951,0.0103046447,2105.699951,0.01001229417,
2105.600098,0.01422979683,2105.600098,0.01842084713,
2105.5,0.01481102686,2105.5,0.01092446875,
2105.399902,0.009394109249,2105.399902,0.01398835424,
2105.300049,0.01685894839,2105.300049,0.01262212731,
2105.199951,0.01109447144,2105.199951,0.01024770364,
2105.100098,0.008164116181,2105.100098,0.01319036074,
2105,0.01349164546,2105,0.006069910247,
2104.899902,0.009608309716,2104.899902,0.008945646696,
2104.800049,0.01448398363,2104.800049,0.01212553401,
2104.699951,0.01263635978,2104.699951,0.009164117277,
2104.600098,0.01224259939,2104.600098,0.006269980222,
2104.5,0.0129807787,2104.5,0.0111300312,
2104.399902,0.01223727036,2104.399902,0.01143314037,
2104.300049,0.01299772691,2104.300049,0.01507409941,
2104.199951,0.01122193318,2104.199951,0.007379439194,
2104.100098,0.01039563306,2104.100098,0.01407323033,
2104,0.009925580584,2104,0.005853733979,
2103.899902,0.006666839123,2103.899902,0.008780524135,
2103.800049,0.01629648358,2103.800049,0.01290749479,
2103.699951,0.009248059243,2103.699951,0.0125784222,
2103.600098,0.00961188972,2103.600098,0.009549608454,
2103.5,0.005544462707,2103.5,0.006929524709,
2103.399902,0.007389870938,2103.399902,0.01215892006,
2103.300049,0.01184809301,2103.300049,0.00737365894,
2103.199951,0.009611092508,2103.199951,0.003609573934,
2103.100098,0.006238678936,2103.100098,0.005462619476,
2103,0.008917222731,2103,0.005880404729,
2102.899902,0.008429753594,2102.899902,0.009607267566,
2102.800049,0.01219218504,2102.800049,0.00250342628,
2102.699951,0.009195284918,2102.699951,0.009139472619,
2102.600098,0.006647991017,2102.600098,0.009568721987,
2102.5,0.005562804174,2102.5,0.007008965127,
2102.399902,0.006187860854,2102.399902,0.008806264959,
2102.300049,0.01077240054,2102.300049,0.006555431988,
2102.199951,0.008081915788,2102.199951,0.004028100986,
2102.100098,0.01244823541,2102.100098,0.005882566795,
2102,0.01224830747,2102,0.009917617775,
2101.899902,0.008766590618,2101.899902,0.008021709509,
2101.800049,0.009198636748,2101.800049,0.008076827042,
2101.699951,0.008863565512,2101.699951,0.011116134,
2101.600098,0.0036155493,2101.600098,0.005855194293,
2101.5,0.0080231959,2101.5,0.005873619579,
2101.399902,0.009179474786,2101.399902,0.01061188336,
2101.300049,0.004034236073,2101.300049,0.006325350143,
2101.199951,0.006950650364,2101.199951,0.006687549409,
2101.100098,0.006554055493,2101.100098,0.00668368442,
2101,0.006605698727,2101,0.008174920455,
2100.899902,0.008480161428,2100.899902,0.007790014148,
2100.800049,0.007681095973,2100.800049,0.007032881025,
2100.699951,0.006908006035,2100.699951,0.005185777321,
2100.600098,0.006232744548,2100.600098,0.005555558018,
2100.5,0.005161501002,2100.5,0.002954962663,
2100.399902,0.00364543125,2100.399902,0.002951523056,
2100.300049,0.004767457023,2100.300049,0.005540356971,
2100.199951,0.004711076152,2100.199951,0.005538010504,
2100.100098,0.006320269313,2100.100098,0.006276242435,
2100,0.00594216818,2100,0.003306933213,

sample1,
sample1
Collection Time: 7/30/02 4:23:20 PM
Operator Name  :
Scan Software Version: 02.00(25)
Parameter List :
Instrument                        Cary 500
Instrument Version                500.05
Start (nm)                        2180.000
Stop (nm)                         2100.000
X Mode                            Nanometers
Y Mode                            %T
UV-Vis Scan Rate (nm/min)         60.000
UV-Vis Data Interval (nm)         0.100
UV-Vis Ave. Time (sec)            0.100
UV-Vis SBW (nm)                   0.250
Slit Height                       Full
Beam Mode                         Double
Signal-to-noise Mode              Off
UV Source                         On
Vis Source                        On
Third Source                      Off
Source Changeover (nm)            350.00
Detector Changeover (nm)          880.00
Baseline Correction               On
Baseline Type                     Baseline correction
Baseline File Name
Baseline Std Ref File Name
Cycle Mode                        Off
Comments
Method Log     :
Method Name    : C:\Varian\Cary WinUV\Methods\Test\Standard Scan.MSW
Date/Time stamp: 6/6/02 6:45:38 AM
Method Modifications: None
<SBW (nm)> , 8.52
<Energy> , 3.00
<Slit height> , Full
<Current Wavelength> , 2099.900

sample2,
sample2
Collection Time: 7/30/02 4:31:29 PM
Operator Name  :
Scan Software Version: 02.00(25)
Parameter List :
Instrument                        Cary 500
Instrument Version                500.05
Start (nm)                        2180.000
Stop (nm)                         2100.000
X Mode                            Nanometers
Y Mode                            %T
UV-Vis Scan Rate (nm/min)         60.000
UV-Vis Data Interval (nm)         0.100
UV-Vis Ave. Time (sec)            0.100
UV-Vis SBW (nm)                   0.250
Slit Height                       Full
Beam Mode                         Double
Signal-to-noise Mode              Off
UV Source                         On
Vis Source                        On
Third Source                      Off
Source Changeover (nm)            350.00
Detector Changeover (nm)          880.00
Baseline Correction               On
Baseline Type                     Baseline correction
Baseline File Name
Baseline Std Ref File Name
Cycle Mode                        Off
Comments
Method Log     :
Method Name    : C:\Varian\Cary WinUV\Methods\Test\Standard Scan.MSW
Date/Time stamp: 6/6/02 6:45:38 AM
Method Modifications: None
<SBW (nm)> , 8.52
<Energy> , 3.00
<Slit height> , Full
<Current Wavelength> , 2099.900

